"Time (s)","X (m/s^2)","Y (m/s^2)","Z (m/s^2)"
5.440499997E-3,-7.424203867E-1,-1.111054297E-1,-1.268240610E-1
1.542450000E-2,-6.458074272E-1,-6.692956924E-2,9.060845375E-3
2.540750000E-2,-6.483188063E-1,-5.250938527E-2,-3.989555240E-3
3.539150000E-2,-7.182152528E-1,-1.132987203E-1,-9.776135266E-2
4.537450000E-2,-7.325222200E-1,-2.461541842E-1,-9.485382468E-2
5.535750000E-2,-6.564201236E-1,-3.589275321E-1,-5.162740588E-2
6.534150000E-2,-5.165330905E-1,-4.619323754E-1,-2.025563210E-2
7.532450000E-2,-4.117240888E-1,-4.607161546E-1,5.530968994E-2
8.530850000E-2,-1.632180083E-1,-3.880112904E-1,2.103170380E-1
9.529150000E-2,2.624014038E-1,-3.524156342E-1,4.012081638E-1
1.052745000E-1,1.032663893E0,-1.911125891E-1,6.079852974E-1
1.152585417E-1,1.916191041E0,-3.758751020E-2,1.076641971E0
1.252415417E-1,2.718174090E0,-5.312195420E-3,1.466282296E0
1.352255417E-1,3.469883364E0,1.221664613E-1,1.710684069E0
1.452085417E-1,4.203373298E0,1.948187006E-1,1.910220742E0
1.551915417E-1,4.805199723E0,1.233440906E-1,1.961149990E0
1.651755417E-1,5.303035172E0,1.705135792E-2,1.889203510E0
1.751585417E-1,5.709229549E0,-2.000376329E-1,1.735193405E0
1.851425417E-1,6.010493302E0,-3.832928798E-1,1.578792080E0
1.951255417E-1,6.127883758E0,-3.928013295E-1,1.600773518E0
2.051085417E-1,6.643809907E0,-8.458055913E-1,1.203776227E0
2.150925417E-1,7.145455987E0,-1.180564827E0,9.602095816E-1
2.250755417E-1,7.536174538E0,-1.150996627E0,8.837721473E-1
2.350595417E-1,7.886357267E0,-1.165947080E0,7.976841760E-1
2.450425417E-1,8.290836071E0,-1.340034185E0,5.193368304E-1
2.550255417E-1,8.595901684E0,-1.531761463E0,1.842251538E-1
2.650095417E-1,9.024754021E0,-1.656746867E0,9.405407175E-2
2.749925417E-1,9.673149426E0,-1.609919440E0,1.486045007E-1
2.849765417E-1,1.027147161E1,-1.492511736E0,3.060116923E-1
2.949595417E-1,1.063396390E1,-1.458033775E0,6.007661788E-1
3.049425417E-1,1.052428768E1,-1.609107555E0,7.886734705E-1
3.149265417E-1,1.005478433E1,-1.910596864E0,8.257512496E-1
3.249095417E-1,9.120371785E0,-2.371418707E0,6.979290690E-1
3.348935417E-1,7.833451075E0,-2.893099979E0,4.541690272E-1
3.448765417E-1,6.208837874E0,-3.369036435E0,-7.191081226E-2
3.548595417E-1,4.477010127E0,-3.961808740E0,-7.816014093E-1
3.648435417E-1,2.742939972E0,-4.699692564E0,-1.430068881E0
3.748265417E-1,9.846418798E-1,-5.241673322E0,-1.803261427E0
3.848105417E-1,-5.316674387E-1,-5.565618424E0,-2.043834005E0
3.947935417E-1,-2.101178818E0,-5.772972386E0,-2.352933173E0
4.047765417E-1,-3.851694852E0,-6.006166363E0,-2.680073048E0
4.147605417E-1,-5.220093588E0,-6.145503173E0,-2.782906276E0
4.247435417E-1,-6.009073598E0,-6.139420899E0,-2.779054130E0
4.347275417E-1,-6.549893684E0,-6.042696258E0,-2.775957153E0
4.447105417E-1,-7.246138024E0,-5.975676641E0,-2.649304707E0
4.546945417E-1,-7.953089200E0,-6.040077290E0,-2.392000029E0
4.646775417E-1,-8.432835703E0,-6.140776284E0,-1.971964416E0
4.746605417E-1,-8.789811727E0,-6.235883000E0,-1.420377121E0
4.846445417E-1,-9.104130558E0,-6.296451384E0,-8.403407836E-1
4.946275417E-1,-9.227150713E0,-6.253564396E0,-2.756833541E-1
5.046105417E-1,-9.433677878E0,-6.189007042E0,3.163495696E-1
5.145945417E-1,-9.804514727E0,-6.233211408E0,1.012349934E0
5.245775417E-1,-1.028372387E1,-6.352693997E0,1.783111922E0
5.345615417E-1,-1.101526317E1,-6.428454616E0,2.537237265E0
5.445445417E-1,-1.188642697E1,-6.427863463E0,2.997570426E0
5.545285417E-1,-1.274329082E1,-6.383074375E0,3.052769896E0
5.645115417E-1,-1.348159769E1,-6.282984661E0,2.921320980E0
5.744945417E-1,-1.380687361E1,-6.065502153E0,2.731979951E0
5.844785417E-1,-1.371559390E1,-5.921569431E0,2.795783599E0
5.944615417E-1,-1.348236718E1,-5.980863122E0,2.992020834E0
6.044455417E-1,-1.323527554E1,-6.138709293E0,3.050182503E0
6.144285417E-1,-1.293285404E1,-6.309231643E0,2.947888389E0
6.244115417E-1,-1.235188054E1,-6.407290034E0,2.614646798E0
6.343955417E-1,-1.127962515E1,-6.452028251E0,1.995683938E0
6.443785417E-1,-9.825051903E0,-6.756731921E0,9.938394038E-1
6.543615417E-1,-7.850805026E0,-7.090646526E0,-4.460023673E-1
6.643455417E-1,-5.733915324E0,-7.322768708E0,-2.038726608E0
6.743285417E-1,-4.202634795E0,-7.643070996E0,-3.441136405E0
6.843125417E-1,-2.892105952E0,-8.306773242E0,-4.334031378E0
6.942955417E-1,-1.140998765E0,-9.174247445E0,-4.015080675E0
7.042795417E-1,2.434941396E0,-1.025480120E1,-4.503295700E0
7.142625417E-1,6.150605453E0,-1.019192960E1,-4.660413601E0
7.242455417E-1,8.680217364E0,-9.710094473E0,-3.889265551E0
7.342295417E-1,1.105098031E1,-9.038037141E0,-2.247466798E0
7.442125417E-1,1.386385122E1,-7.406240051E0,6.036131881E-1
7.541965417E-1,1.659799406E1,-5.222134266E0,4.438400085E0
7.641795417E-1,1.782370495E1,-3.722188965E0,8.197407505E0
7.741625417E-1,1.664104126E1,-3.330290738E0,1.089681145E1
7.841465417E-1,1.411963416E1,-3.913206391E0,1.119555856E1
7.941295417E-1,1.213721288E1,-4.727372698E0,9.434326919E0
8.041135417E-1,1.109496540E1,-5.319737744E0,6.590942892E0
8.140965417E-1,1.092969268E1,-5.454938818E0,3.560487140E0
8.240795417E-1,1.145443000E1,-5.071517007E0,8.877339283E-1
8.340635417E-1,1.248878491E1,-4.201174453E0,-1.035717016E0
8.440465417E-1,1.362709161E1,-2.946164338E0,-1.678235385E0
8.540305417E-1,1.438979424E1,-1.623775587E0,-9.853473464E-1
8.640135417E-1,1.481521894E1,-9.458859497E-1,2.433064440E-1
8.739965417E-1,1.487267602E1,-1.066596454E0,1.233270752E0
8.839805417E-1,1.432750151E1,-1.296682636E0,1.913756261E0
8.939635417E-1,1.358808016E1,-1.409881808E0,2.140372120E0
9.039475417E-1,1.318580576E1,-1.776767108E0,1.745631123E0
9.139305417E-1,1.273208287E1,-2.084368366E0,1.362019278E0
9.239135417E-1,1.147592319E1,-2.232268131E0,1.182762211E0
9.338975417E-1,1.045206170E1,-2.350536838E0,1.071078053E0
9.438805417E-1,9.650839375E0,-2.591947907E0,9.543044785E-1
9.538645417E-1,8.395304765E0,-3.107237003E0,7.117470628E-1
9.638475417E-1,6.820401667E0,-3.832933475E0,9.258422792E-2
9.738305417E-1,4.804878711E0,-4.504097061E0,-5.218578574E-1
9.838145417E-1,2.593978645E0,-5.284788936E0,-1.131974465E0
9.937975417E-1,3.814343423E-1,-6.055736718E0,-1.582937171E0
1.003781542E0,-1.429698606E0,-6.662745531E0,-2.032853519E0
1.013764542E0,-3.231429232E0,-6.908661295E0,-2.427760138E0
1.023747542E0,-4.916344183E0,-6.952073362E0,-2.612030462E0
1.033731542E0,-6.084506189E0,-6.970923032E0,-2.644462336E0
1.043714542E0,-7.005098838E0,-6.841062219E0,-2.579079940E0
1.053698542E0,-7.732695363E0,-6.717521077E0,-2.592820897E0
1.063681542E0,-8.508306300E0,-6.544118389E0,-2.439937550E0
1.073664542E0,-9.450990314E0,-6.515702675E0,-2.134124955E0
1.083648542E0,-1.028669309E1,-6.704015179E0,-1.544375369E0
1.093631542E0,-1.096967945E1,-6.956120805E0,-5.903872249E-1
1.103615542E0,-1.158888205E1,-7.151566912E0,5.341165450E-1
1.113598542E0,-1.218714342E1,-7.226138792E0,1.625844186E0
1.123581500E0,-1.302997746E1,-7.264030504E0,2.558628134E0
1.133565500E0,-1.415985599E1,-7.406600824E0,2.954319157E0
1.143548500E0,-1.523831060E1,-7.549807321E0,2.705166374E0
1.153532500E0,-1.578699460E1,-7.417010037E0,2.315132532E0
1.163515500E0,-1.550374963E1,-7.154434386E0,2.340358590E0
1.173498500E0,-1.458940181E1,-7.214601651E0,2.630241907E0
1.183482500E0,-1.378568798E1,-7.454106528E0,2.773802161E0
1.193465500E0,-1.333159789E1,-7.731275659E0,2.810591088E0
1.203449500E0,-1.294462916E1,-7.823199152E0,2.907991667E0
1.213432500E0,-1.242528414E1,-7.782154037E0,2.921115743E0
1.223415500E0,-1.163509376E1,-7.862540973E0,2.689937886E0
1.233399500E0,-1.044276229E1,-8.012426745E0,1.978937513E0
1.243382500E0,-8.858458623E0,-8.066066762E0,5.665127510E-1
1.253366500E0,-6.945506355E0,-7.896119193E0,-1.385065055E0
1.263349500E0,-4.880677922E0,-7.625164483E0,-3.438219522E0
1.273332500E0,-3.011007328E0,-7.543740835E0,-5.094291912E0
1.283316500E0,-1.464570231E0,-7.763937036E0,-5.803058649E0
1.293299500E0,-4.890944463E-1,-8.522360083E0,-5.580823524E0
1.303283500E0,7.970766503E-1,-9.277562483E0,-4.949972690E0
1.313266500E0,3.550345729E0,-9.356482353E0,-4.213068566E0
1.323249500E0,7.902065812E0,-1.023113986E1,-4.729924423E0
1.333233500E0,1.176115739E1,-9.572759165E0,-3.970536586E0
1.343216500E0,1.580783876E1,-7.633398532E0,-2.125477069E0
1.353200500E0,2.053393852E1,-5.078769894E0,7.208033766E-1
1.363183500E0,2.562919288E1,-2.271037509E0,3.845450610E0
1.373166500E0,2.840782952E1,-5.743255082E-1,7.239966872E0
1.383150500E0,2.770124496E1,-8.010784847E-1,9.478817214E0
1.393133500E0,2.483636423E1,-2.210505964E0,8.896197138E0
1.403117500E0,2.197843467E1,-3.419377454E0,6.353511438E0
1.413100500E0,2.004074459E1,-3.700389083E0,3.580438424E0
1.423083500E0,1.872539238E1,-3.238401744E0,1.529611442E0
1.433067500E0,1.786069677E1,-2.280332243E0,8.487518571E-1
1.443050500E0,1.715198851E1,-1.310074514E0,1.354486748E0
1.453034500E0,1.659585398E1,-9.403103372E-1,2.092872702E0
1.463017500E0,1.562503492E1,-1.373034993E0,2.226712984E0
1.473001500E0,1.392234443E1,-2.435844206E0,1.682453858E0
1.482984500E0,1.146617939E1,-3.743017040E0,8.114032057E-1
1.492967500E0,9.171834884E0,-5.195111359E0,-1.330642095E-1
1.502951500E0,6.341097799E0,-6.194821513E0,-4.811246914E-1
1.512934500E0,3.042934295E0,-7.594157283E0,-1.049875464E0
1.522918500E0,4.556501269E-2,-9.234947391E0,-2.416853327E0
1.532901500E0,-2.671295208E0,-9.293207293E0,-3.029912253E0
1.542884500E0,-4.989838421E0,-9.080571542E0,-3.527416458E0
1.552868500E0,-7.158353190E0,-8.227730581E0,-3.304880201E0
1.562851500E0,-9.134644253E0,-7.272469790E0,-3.033863802E0
1.572835500E0,-1.070394572E1,-6.530219557E0,-3.000526194E0
1.582818500E0,-1.168692582E1,-5.798507761E0,-3.056451011E0
1.592801500E0,-1.209636306E1,-5.093552240E0,-2.991517974E0
1.602785500E0,-1.226601535E1,-4.457692388E0,-2.693112924E0
1.612768500E0,-1.219092774E1,-4.074575509E0,-2.337957138E0
1.622752500E0,-1.194946463E1,-3.890662451E0,-2.069545966E0
1.632735500E0,-1.170358103E1,-3.768393956E0,-1.913935186E0
1.642718500E0,-1.146356218E1,-3.649332073E0,-1.803901112E0
1.652702500E0,-1.118442078E1,-3.586725935E0,-1.583785602E0
1.662685500E0,-1.092874309E1,-3.610357457E0,-1.313283466E0
1.672669500E0,-1.074834363E1,-3.713435683E0,-1.049485747E0
1.682652500E0,-1.015779590E1,-4.441291240E0,-1.590512824E0
1.692635500E0,-1.090030457E1,-4.051550928E0,-5.759852403E-1
1.702619500E0,-1.148936477E1,-3.720107941E0,4.773041207E-1
1.712602500E0,-1.209447207E1,-4.408604136E0,9.890724613E-1
1.722586500E0,-1.304282496E1,-5.351013916E0,1.278070949E0
1.732569500E0,-1.361755948E1,-6.027340300E0,8.770729192E-1
1.742552500E0,-1.464702963E1,-6.267554444E0,2.892067214E-1
1.752536500E0,-1.335508265E1,-6.408144897E0,-7.434547591E-1
1.762519500E0,-1.086371972E1,-6.608544180E0,-1.011311030E0
1.772503500E0,-9.046843632E0,-7.192547708E0,-1.067570601E0
1.782486500E0,-6.850044712E0,-8.005964987E0,-1.664501006E0
1.792469500E0,-4.125769637E0,-8.527254787E0,-2.329564045E0
1.802453500E0,-1.339923381E0,-8.924082509E0,-2.951853094E0
1.812436500E0,2.490484682E0,-9.120424410E0,-4.052456077E0
1.822420500E0,8.106635329E0,-7.756134512E0,-5.238659667E0
1.832403500E0,1.492525886E1,-5.341742570E0,-5.056503696E0
1.842386500E0,2.077534666E1,-3.891883349E0,-2.431457040E0
1.852370500E0,2.546066677E1,-2.848445085E0,1.172528706E0
1.862353500E0,2.967809034E1,-1.124489152E0,4.967766936E0
1.872337500E0,3.266618360E1,6.508509430E-1,8.416086938E0
1.882320500E0,3.387044106E1,1.691540724E0,1.028960032E1
1.892303500E0,3.311204315E1,1.988120565E0,1.003207959E1
1.902287500E0,3.057037779E1,1.649802129E0,7.085559449E0
1.912270500E0,2.649615721E1,6.757211977E-1,3.117445364E0
1.922254500E0,2.161532960E1,-6.374533640E-1,-1.624508536E-1
1.932237500E0,1.664479167E1,-1.585197997E0,-1.365793802E0
1.942220500E0,1.344296162E1,-4.303153402E0,-2.926044361E0
1.952204500E0,9.686161820E0,-6.512683173E0,-3.120952816E0
1.962187500E0,5.038329965E0,-7.671290243E0,-2.628608195E0
1.972171500E0,1.129392042E0,-8.009990795E0,-1.710651763E0
1.982154500E0,-1.542586706E0,-8.811634705E0,-1.164629849E0
1.992137500E0,-4.701485320E0,-9.395242376E0,-9.813767946E-1
2.002121500E0,-8.067475941E0,-9.263208153E0,-1.237449318E0
2.012104500E0,-1.080545338E1,-8.374096913E0,-1.760585523E0
2.022088500E0,-1.254270208E1,-7.156677378E0,-2.399681516E0
2.032071500E0,-1.307859823E1,-6.104708319E0,-2.858107024E0
2.042054500E0,-1.287508472E1,-5.233682517E0,-2.926093770E0
2.052038500E0,-1.221845877E1,-4.494321393E0,-2.854856265E0
2.062021500E0,-1.128904618E1,-3.914989792E0,-2.750789567E0
2.072005500E0,-1.045110159E1,-3.559578483E0,-2.588115934E0
2.081988500E0,-9.843986356E0,-3.397079097E0,-2.272826319E0
2.091972500E0,-9.596477811E0,-3.404706790E0,-1.743330536E0
2.101955500E0,-9.688330552E0,-3.625696458E0,-1.084411166E0
2.111938500E0,-9.880791070E0,-3.858406286E0,-3.880311710E-1
2.121922500E0,-1.019148872E1,-3.935601811E0,2.702941217E-1
2.131905500E0,-1.065554130E1,-4.084557291E0,4.894517112E-1
2.141889500E0,-1.103928821E1,-4.208163337E0,4.217052859E-1
2.151872500E0,-1.131300573E1,-4.219897529E0,2.622430904E-1
2.161855500E0,-1.149867705E1,-4.315053363E0,-1.382720321E-1
2.171839500E0,-1.162752162E1,-4.346173999E0,-6.668788920E-1
2.181822500E0,-1.169547913E1,-4.348648540E0,-1.143559992E0
2.191806500E0,-1.163937626E1,-4.314948405E0,-1.507529140E0
2.201789500E0,-1.125474057E1,-4.323745834E0,-1.785325531E0
2.211772500E0,-1.046689492E1,-4.369948193E0,-1.925279369E0
2.221756500E0,-8.939979334E0,-4.560674135E0,-2.348079984E0
2.231739500E0,-6.555052682E0,-4.795102167E0,-3.522788386E0
2.241723500E0,-3.676652604E0,-4.838866822E0,-5.086340284E0
2.251706500E0,-4.665341341E-1,-4.310144625E0,-5.038263892E0
2.261689500E0,4.300162259E0,-5.589482666E0,-4.934673450E0
2.271673500E0,1.102372409E1,-5.919307728E0,-2.733047360E0
2.281656500E0,1.971359287E1,-4.457360266E0,2.203526142E0
2.291640500E0,2.875685918E1,-2.827216476E0,8.189135449E0
2.301623500E0,3.525911969E1,-2.046838304E0,1.455750992E1
2.311606500E0,3.791476599E1,-2.011718319E0,1.986690921E1
2.321590500E0,3.660385533E1,-2.415236864E0,2.106873188E1
2.331573500E0,3.346234750E1,-2.819009909E-1,1.979329276E1
2.341557500E0,2.789654665E1,-3.204327533E-1,1.595049328E1
2.351540500E0,2.149208432E1,-3.673616729E0,1.014828715E1
2.361523500E0,1.536782292E1,-5.526985286E0,5.187480742E0
2.371507500E0,8.368856054E0,-6.597323374E0,1.217324225E0
2.381490500E0,1.656523211E0,-7.209150292E0,-1.767142006E0
2.391474500E0,-4.075288285E0,-6.744829329E0,-3.733774053E0
2.401457500E0,-7.671262761E0,-6.012293075E0,-5.480360173E0
2.411440500E0,-9.425791154E0,-5.350410483E0,-7.152730508E0
2.421424500E0,-9.923686244E0,-4.158517845E0,-7.707962810E0
2.431407500E0,-9.239757895E0,-2.792106577E0,-7.313847027E0
2.441391500E0,-8.005264490E0,-1.955763535E0,-6.390900289E0
2.451374500E0,-6.978236144E0,-1.936168638E0,-5.522446677E0
2.461357500E0,-6.272782440E0,-2.241609935E0,-4.676157521E0
2.471341500E0,-5.934851382E0,-2.601038281E0,-3.945748192E0
2.481324500E0,-5.918812469E0,-2.809886206E0,-3.368989658E0
2.491308500E0,-6.156044533E0,-2.866438722E0,-3.024703846E0
2.501291500E0,-6.787575983E0,-2.934059724E0,-2.922126142E0
2.511274500E0,-7.514336357E0,-3.083748445E0,-2.956710083E0
2.521258500E0,-8.069102052E0,-3.270175806E0,-2.742616037E0
2.531241500E0,-8.449571604E0,-3.541183142E0,-2.222264714E0
2.541225500E0,-9.018858274E0,-4.034315675E0,-1.435886422E0
2.551208500E0,-9.949341488E0,-4.769648652E0,-4.219707495E-1
2.561191500E0,-1.108841418E1,-5.462007517E0,8.380571535E-1
2.571175500E0,-1.239307651E1,-6.107247764E0,2.096912397E0
2.581158500E0,-1.375803884E1,-6.219486823E0,3.342391843E0
2.591142500E0,-1.536049752E1,-6.389404571E0,3.845172867E0
2.601125500E0,-1.673684555E1,-6.911545141E0,4.371112958E0
2.611108500E0,-1.741254277E1,-7.005347344E0,4.742795899E0
2.621092500E0,-1.754996287E1,-7.362487090E0,4.267689747E0
2.631075500E0,-1.595874487E1,-7.584283674E0,3.276569152E0
2.641059500E0,-1.236068528E1,-7.879544676E0,2.400280856E0
2.651042500E0,-8.569614356E0,-8.059728380E0,1.231844616E0
2.661025500E0,-5.451576669E0,-7.750983700E0,-4.685408986E-1
2.671009500E0,-3.241878206E0,-7.397028347E0,-2.628481895E0
2.680992500E0,-1.297785421E0,-7.037490658E0,-5.364746686E0
2.690976500E0,9.831566870E-1,-6.709479986E0,-7.848614075E0
2.700959500E0,4.069313015E0,-6.750022826E0,-9.278089317E0
2.710943500E0,8.707834348E0,-7.110573837E0,-1.004311562E1
2.720926500E0,1.233060603E1,-7.603994638E0,-9.192303062E0
2.730909500E0,1.418743380E1,-8.692283093E0,-6.119279580E0
2.740893500E0,1.834552450E1,-9.466854980E0,-1.495445430E0
2.750876500E0,2.606312879E1,-7.894924607E0,3.733984553E0
2.760860500E0,3.212406485E1,-4.091531558E0,8.986529603E0
2.770843500E0,3.466526477E1,9.409737039E-1,1.345381990E1
2.780826500E0,3.486109270E1,2.354860854E0,1.542487537E1
2.790810500E0,3.180530272E1,1.143613055E-1,1.386692686E1
2.800793500E0,2.581358366E1,-1.206234104E0,9.248324651E0
2.810777500E0,2.079031787E1,-2.457325415E0,3.958499508E0
2.820760500E0,1.634951663E1,-3.702803399E0,3.455882791E-1
2.830743500E0,1.194532013E1,-4.514242857E0,-1.576812213E0
2.840727500E0,8.528887914E0,-4.879918076E0,-1.800367640E0
2.850710500E0,5.785766094E0,-5.110395144E0,-1.179959640E0
2.860694500E0,3.463850791E0,-5.314396312E0,-5.019855103E-1
2.870677500E0,1.890880784E0,-5.476413302E0,6.375950128E-2
2.880660500E0,6.104575002E-1,-5.584057619E0,5.695685059E-1
2.890644500E0,-1.124787360E0,-5.827929781E0,3.432491004E-1
2.900627500E0,-2.714303234E0,-5.933969622E0,-5.124461791E-1
2.910611500E0,-3.919541264E0,-5.813896464E0,-1.575296615E0
2.920594500E0,-5.107156371E0,-5.498069050E0,-2.692349862E0
2.930577500E0,-6.477832598E0,-5.173636875E0,-3.536840415E0
2.940561500E0,-7.811994132E0,-4.923923929E0,-4.006160163E0
2.950544500E0,-8.932620029E0,-4.592699627E0,-3.985977913E0
2.960528500E0,-9.824483553E0,-4.179693244E0,-3.595526580E0
2.970511500E0,-1.028798766E1,-3.851907690E0,-3.081076267E0
2.980494500E0,-1.031778624E1,-3.614883202E0,-2.620752169E0
2.990478500E0,-1.014827078E1,-3.456316069E0,-2.184718573E0
3.000461500E0,-9.998812441E0,-3.377037765E0,-1.829869766E0
3.010445500E0,-9.995983558E0,-3.447318959E0,-1.510438129E0
3.020428500E0,-1.021434900E1,-3.564100719E0,-9.706272733E-1
3.030411500E0,-1.061814134E1,-3.722471970E0,-4.264147796E-1
3.040395500E0,-1.096905029E1,-3.963968993E0,-3.028930798E-2
3.050378500E0,-1.154236511E1,-4.217859775E0,3.511564364E-1
3.060362500E0,-1.254693430E1,-4.432036268E0,6.005388683E-1
3.070345500E0,-1.363847965E1,-4.651406257E0,6.445554652E-1
3.080328500E0,-1.439307336E1,-4.900578336E0,5.449750803E-1
3.090312500E0,-1.488748117E1,-5.175979269E0,4.374289970E-1
3.100295500E0,-1.461305613E1,-5.227047096E0,4.895791074E-1
3.110279500E0,-1.355629820E1,-5.279553924E0,6.711328145E-1
3.120263375E0,-1.223049468E1,-5.556331877E0,6.270127219E-1
3.130246375E0,-1.076701496E1,-5.740612140E0,3.568584949E-1
3.140230375E0,-8.986594507E0,-5.970337549E0,-3.528712785E-1
3.150213375E0,-6.529733654E0,-6.341189600E0,-1.857985518E0
3.160197375E0,-4.034574122E0,-6.708339779E0,-3.572948726E0
3.170180375E0,-1.754973366E0,-7.110646927E0,-4.941696541E0
3.180163375E0,6.007575542E-1,-7.816881820E0,-5.578436691E0
3.190147375E0,4.054737076E0,-8.511414680E0,-5.407207997E0
3.200130375E0,9.033170503E0,-8.589731117E0,-4.951632714E0
3.210114375E0,1.373997211E1,-7.516839550E0,-2.917589287E0
3.220097375E0,1.889182051E1,-6.955571167E0,-3.401266873E-1
3.230081375E0,2.511786323E1,-6.132014231E0,2.587436780E0
3.240064375E0,3.110181719E1,-2.824753337E0,6.203057901E0
3.250047375E0,3.416197855E1,2.948978895E-1,9.154028358E0
3.260031375E0,3.401290730E1,1.572604849E0,1.042172635E1
3.270014375E0,3.087366351E1,1.234498667E0,9.305399907E0
3.279998375E0,2.602943713E1,4.520812789E-1,6.054069677E0
3.289981375E0,2.100950894E1,-6.566592747E-1,2.334145923E0
3.299964375E0,1.596178074E1,-2.185350657E0,-4.465699857E-1
3.309948375E0,1.167530623E1,-3.536455083E0,-1.728902678E0
3.319931375E0,8.807261572E0,-4.280481700E0,-1.708436838E0
3.329915375E0,7.173023854E0,-4.677324625E0,-1.336605086E0
3.339898375E0,6.178271554E0,-4.914782392E0,-1.121063268E0
3.349881375E0,4.916236010E0,-5.055458799E0,-8.937194306E-1
3.359865375E0,3.514826233E0,-5.397960625E0,-6.807212980E-1
3.369848375E0,2.359687731E0,-5.831874897E0,-6.937543032E-1
3.379832375E0,7.077154076E-1,-6.304385471E0,-9.243892461E-1
