"Time (s)","X (m/s^2)","Y (m/s^2)","Z (m/s^2)"
-2.044791669E-3,1.441966415E1,-6.884034576E0,4.035308533E0
7.939208335E-3,1.343456268E1,-6.131100311E0,3.716471558E0
1.792220833E-2,1.223540634E1,-5.320535889E0,3.290008392E0
2.790620834E-2,1.091185867E1,-4.672383728E0,2.563718719E0
3.789020833E-2,9.397607574E0,-4.278253326E0,1.769470367E0
4.787420834E-2,7.498656464E0,-3.925287323E0,9.680369568E-1
5.785820833E-2,5.352718964E0,-3.595523071E0,1.324745178E-1
6.784120834E-2,3.490740967E0,-3.126099243E0,-4.745132446E-1
7.782520833E-2,2.251168671E0,-2.477647705E0,-8.737330627E-1
8.780920834E-2,1.446142731E0,-1.707499237E0,-1.139729919E0
9.779320833E-2,6.270460510E-1,-9.524693298E-1,-1.294208679E0
1.077762083E-1,-4.233197021E-1,-3.945794678E-1,-1.432371368E0
1.177602083E-1,-1.414109344E0,6.795867920E-2,-1.576072540E0
1.277442083E-1,-2.351609802E0,4.156855774E-1,-1.454076233E0
1.377282083E-1,-3.066972198E0,7.524851990E-1,-1.073717194E0
1.477122083E-1,-3.489693146E0,1.190624084E0,-6.170169067E-1
1.576952083E-1,-4.222269745E0,1.670077057E0,-2.152523804E-1
1.676792083E-1,-4.778962097E0,1.738185425E0,-1.595681763E-1
1.776632083E-1,-4.982389069E0,1.465751953E0,-5.739065552E-1
1.876472083E-1,-6.999893646E0,1.905537415E0,5.351371765E-1
1.976302083E-1,-7.865094452E0,2.359992371E0,1.445843353E0
2.076142083E-1,-8.294701080E0,2.718646545E0,1.663191376E0
2.175982083E-1,-8.850046234E0,3.235372009E0,1.861977997E0
2.275822083E-1,-9.130263519E0,3.650907898E0,1.959575043E0
2.375662083E-1,-9.382189636E0,3.745660858E0,2.013762360E0
2.475492083E-1,-9.604477386E0,3.178789673E0,1.905687103E0
2.575332083E-1,-9.529633026E0,2.052681427E0,1.611698456E0
2.675172083E-1,-9.041647797E0,1.160836029E0,1.542841644E0
2.775012083E-1,-8.261470184E0,3.739224243E-1,1.541344757E0
2.874842083E-1,-7.485184479E0,-6.253994751E-1,1.639540558E0
2.974682083E-1,-6.486910400E0,-1.782642975E0,1.783241730E0
3.074522083E-1,-5.297034760E0,-2.963986359E0,1.754800873E0
3.174362083E-1,-3.908522186E0,-4.350702667E0,1.868414612E0
3.274192083E-1,-2.500400391E0,-6.277346191E0,1.765877838E0
3.374032083E-1,-7.116201782E-1,-8.320148163E0,1.911375275E0
3.473872083E-1,2.419418793E0,-1.041893372E1,1.713486786E0
3.573712083E-1,6.623276825E0,-1.266680923E1,1.153052216E0
3.673552083E-1,1.178783707E1,-1.452130280E1,3.134481812E-1
3.773382083E-1,1.749052826E1,-1.503458542E1,-1.386566620E0
3.873222083E-1,2.514815414E1,-1.315434540E1,-1.176403656E0
3.973062083E-1,3.227633102E1,-1.094793365E1,2.451901245E-1
4.072902083E-1,3.422572723E1,-8.705895996E0,2.715203705E0
4.172742083E-1,3.332310425E1,-7.405250702E0,5.138664093E0
4.272572083E-1,3.321487930E1,-6.817123718E0,7.715705109E0
4.372412083E-1,3.469934235E1,-5.667364655E0,1.014754807E1
4.472252083E-1,3.687656479E1,-4.664899292E0,1.140508301E1
4.572092083E-1,3.863016815E1,-3.720513153E0,1.174233170E1
4.671922083E-1,3.954192215E1,-3.434308319E0,1.125763962E1
4.771762083E-1,3.825699417E1,-3.981420593E0,1.026684998E1
4.871602083E-1,3.414983505E1,-4.728367310E0,8.797355804E0
4.971442083E-1,2.899410645E1,-6.139033813E0,7.373816071E0
5.071282083E-1,2.375784531E1,-7.397915955E0,6.065386963E0
5.171112083E-1,1.966864883E1,-7.987390137E0,5.109624481E0
5.270952083E-1,1.701766159E1,-8.130342865E0,4.733007660E0
5.370792083E-1,1.533935165E1,-7.910300446E0,4.626279602E0
5.470632083E-1,1.407523041E1,-7.355404358E0,4.505480804E0
5.570462083E-1,1.357407257E1,-6.693780212E0,4.171674957E0
5.670302083E-1,1.309626617E1,-5.743107147E0,3.605851593E0
5.770142083E-1,1.179412399E1,-4.740791473E0,2.714904327E0
5.869982083E-1,1.032283356E1,-4.052522736E0,1.707050171E0
5.969822083E-1,8.768016815E0,-3.499871979E0,8.068222046E-1
6.069652083E-1,7.189249878E0,-3.065026245E0,2.859054565E-2
6.169492083E-1,5.271138611E0,-2.702629852E0,-6.665638733E-1
6.269332083E-1,3.472778320E0,-2.321672058E0,-1.173110504E0
6.369172083E-1,2.006427612E0,-1.703607330E0,-1.535207520E0
6.469002083E-1,6.560856628E-1,-8.981323242E-1,-1.846260681E0
6.568842083E-1,-5.480104065E-1,-1.924996948E-1,-1.923949127E0
6.668682083E-1,-1.334924011E0,1.002914429E-1,-1.656006317E0
6.768522083E-1,-2.230661316E0,6.224057007E-1,-1.607357483E0
6.868362083E-1,-3.350332947E0,8.625064087E-1,-1.677711182E0
6.968192083E-1,-4.111799469E0,1.207389221E0,-1.636397095E0
7.068032083E-1,-4.381987610E0,1.874102783E0,-1.433419189E0
7.167872083E-1,-4.640949097E0,2.295027466E0,-1.209933929E0
7.267712083E-1,-5.055586853E0,2.617157593E0,-1.100062408E0
7.367538333E-1,-5.506449280E0,2.927911377E0,-8.181985474E-1
7.467378333E-1,-5.905818787E0,3.073408813E0,-2.474354553E-1
7.567218333E-1,-6.475384369E0,3.261118469E0,1.674867096E0
7.667058333E-1,-8.166866913E0,3.635190582E0,4.050427094E0
7.766898333E-1,-9.670340424E0,3.120411072E0,3.343746643E0
7.866728333E-1,-1.044767395E1,2.571652222E0,2.927312622E0
7.966568333E-1,-1.038615189E1,1.796863403E0,2.321672058E0
8.066408333E-1,-1.007569748E1,1.105900269E0,1.638941803E0
8.166248333E-1,-9.321116638E0,5.875282288E-1,1.379830627E0
8.266078333E-1,-7.944429474E0,-1.778302002E-1,1.818867645E0
8.365918333E-1,-6.384523315E0,-1.405726776E0,2.263143768E0
8.465758333E-1,-5.144801331E0,-3.394790497E0,2.241588593E0
8.565598333E-1,-3.939058685E0,-5.172044678E0,2.177970886E0
8.665438333E-1,-2.830913086E0,-6.647526398E0,2.134112091E0
8.765268333E-1,-2.033072205E0,-8.768914948E0,1.896107025E0
8.865108333E-1,-2.939886475E-1,-1.141211838E1,1.704355774E0
8.964948333E-1,3.328179016E0,-1.394440247E1,7.144642639E-1
9.064788333E-1,8.723858643E0,-1.533336411E1,-1.015188904E0
9.164618333E-1,1.551628372E1,-1.645647858E1,-2.283501434E0
9.264458333E-1,2.497451523E1,-1.778511566E1,-2.989134064E0
9.364298333E-1,3.419968140E1,-1.686393127E1,-2.242935791E0
9.464138333E-1,3.851505753E1,-1.276710068E1,2.136656799E0
9.563978333E-1,4.156481552E1,-9.859546967E0,7.898774414E0
9.663808333E-1,4.370521454E1,-8.077951813E0,1.354039261E1
9.763648333E-1,4.448913437E1,-6.763984222E0,1.769545212E1
9.863488333E-1,4.283492432E1,-6.086942139E0,1.894191010E1
9.963328333E-1,3.950824219E1,-6.087989960E0,1.746657806E1
1.006315833E0,3.623469955E1,-7.158414001E0,1.433628754E1
1.016299833E0,3.285308167E1,-8.147407379E0,1.092548035E1
1.026283833E0,2.924004501E1,-8.799451447E0,8.203091583E0
1.036267833E0,2.551144867E1,-9.257498932E0,6.384223938E0
1.046250833E0,2.172881470E1,-9.544152832E0,5.386099548E0
1.056234833E0,1.854837845E1,-9.802665253E0,5.205425262E0
1.066218833E0,1.606234818E1,-9.879605255E0,5.235812073E0
1.076202833E0,1.410367126E1,-9.712702332E0,4.959187317E0
1.086186833E0,1.250978577E1,-9.441765747E0,4.378395081E0
1.096169833E0,1.137619308E1,-8.671617279E0,3.866010590E0
1.106153833E0,1.071801178E1,-7.619006195E0,3.306773529E0
1.116137833E0,9.966873779E0,-6.477779388E0,2.437082062E0
1.126121833E0,8.749305725E0,-5.488336945E0,1.474882965E0
1.136105833E0,7.122638397E0,-4.651876373E0,5.777984619E-1
1.146088833E0,5.227429504E0,-3.973487091E0,-2.406994629E-1
1.156072833E0,3.426374817E0,-3.620820465E0,-9.479786682E-1
1.166056833E0,1.524130554E0,-2.911445618E0,-1.526675262E0
1.176040833E0,-2.871029663E-1,-2.071691895E0,-1.812431030E0
1.186023833E0,-2.075134735E0,-1.806293793E0,-2.123933258E0
1.196007833E0,-2.793640594E0,-7.384144592E-1,-1.915865936E0
1.205991833E0,-3.116968231E0,1.045276337E0,-1.145567780E0
1.215975833E0,-4.209695892E0,2.140848083E0,-2.571652222E-1
1.225959833E0,-4.830155640E0,2.174078979E0,-3.751199341E-1
1.235942833E0,-5.304070129E0,2.046993256E0,-6.045927429E-1
1.245926833E0,-5.871540070E0,2.226020966E0,-4.209246826E-1
1.255910833E0,-6.384523315E0,2.553988953E0,8.696914673E-2
1.265894833E0,-6.905739441E0,2.867886200E0,6.137237549E-1
1.275877833E0,-7.410639496E0,3.268153839E0,9.391470337E-1
1.285861833E0,-8.038284302E0,3.782783661E0,1.017134857E0
1.295845833E0,-8.780590668E0,4.251608734E0,1.128353577E0
1.305829833E0,-9.420360260E0,4.421056366E0,1.284628601E0
1.315813833E0,-9.691745911E0,4.142036591E0,1.283880157E0
1.325796833E0,-9.583221588E0,3.636388092E0,1.232836304E0
1.335780833E0,-9.381590881E0,3.183430023E0,1.443448334E0
1.345764833E0,-9.099727020E0,2.672692108E0,2.159259796E0
1.355748833E0,-8.946595459E0,1.540895691E0,2.784210205E0
1.365731833E0,-9.321416016E0,1.401086426E-1,2.285597076E0
1.375715833E0,-7.967780914E0,-1.310225372E0,1.942510529E0
1.385699833E0,-6.043831787E0,-2.329156494E0,1.354682922E0
1.395683833E0,-4.289180603E0,-3.482508087E0,1.130898285E0
1.405667833E0,-2.997666321E0,-5.186714172E0,1.140628052E0
1.415650833E0,-1.658401337E0,-7.036268005E0,1.141376495E0
1.425634833E0,1.447489929E-1,-8.910221100E0,7.765850830E-1
1.435618833E0,3.035986633E0,-1.070019882E1,-3.731739807E-1
1.445602833E0,6.844217377E0,-1.220142700E1,-2.279459839E0
1.455585833E0,1.189202042E1,-1.466470459E1,-6.151158600E0
1.465569833E0,1.723755432E1,-1.725701385E1,-9.596394196E0
1.475553833E0,2.274744644E1,-1.864657425E1,-9.780211945E0
1.485537833E0,2.686882599E1,-1.752420822E1,-4.951553192E0
1.495520833E0,3.179822525E1,-1.662787216E1,9.821076965E-1
1.505504833E0,3.868225983E1,-1.516750900E1,6.424340515E0
1.515488833E0,4.614544006E1,-9.088799744E0,1.287592438E1
1.525472833E0,5.275464615E1,-3.300785980E0,1.830603241E1
1.535456833E0,5.275329895E1,-4.524640961E0,1.823088867E1
1.545439833E0,4.404306198E1,-6.935377808E0,1.562136520E1
1.555423833E0,3.529270844E1,-7.305558014E0,1.168140839E1
1.565407833E0,3.188968506E1,-9.029822388E0,7.853418732E0
1.575391833E0,2.876283737E1,-9.575737152E0,5.574707336E0
1.585375833E0,2.514052002E1,-9.200317841E0,4.721631317E0
1.595358833E0,2.215617599E1,-8.985813904E0,4.808151398E0
1.605342833E0,1.931882629E1,-9.123377838E0,4.875361633E0
1.615326833E0,1.629361725E1,-9.134305115E0,5.064418488E0
1.625310833E0,1.402538406E1,-9.126072235E0,5.473368073E0
1.635293833E0,1.281559982E1,-9.003327484E0,5.796546021E0
1.645277833E0,1.196461945E1,-8.514144745E0,5.351371765E0
1.655261833E0,1.092098969E1,-7.821684723E0,4.443060608E0
1.665245833E0,9.956545258E0,-6.961423645E0,3.376678162E0
1.675228833E0,9.028924255E0,-5.967490540E0,2.134411469E0
1.685212833E0,7.754175110E0,-5.157075806E0,7.499404907E-1
1.695196833E0,5.971831512E0,-4.386927338E0,-5.992039490E-1
1.705180833E0,3.935765533E0,-3.468886414E0,-1.592538300E0
1.715164833E0,1.913171539E0,-2.605930939E0,-2.168390808E0
1.725147833E0,1.311273193E-1,-1.808539124E0,-2.274370422E0
1.735131708E0,-1.472787323E0,-9.541159058E-1,-2.181114349E0
1.745115708E0,-2.723436584E0,-5.658233643E-2,-2.042951660E0
1.755099708E0,-3.602857819E0,6.647676086E-1,-1.848506012E0
1.765082708E0,-4.218078461E0,1.122216339E0,-1.570384369E0
1.775066708E0,-4.540657654E0,1.585053864E0,-1.050365753E0
1.785050708E0,-4.762496338E0,2.125879211E0,-4.794529724E-1
1.795034708E0,-4.958139496E0,2.537523193E0,7.813751221E-2
1.805018708E0,-5.282964020E0,2.837050323E0,6.797364807E-1
1.815001708E0,-5.815855865E0,3.140469360E0,1.199605408E0
1.824985708E0,-6.653214569E0,3.426075439E0,1.455124054E0
1.834969708E0,-7.406448212E0,3.674109650E0,1.852846985E0
1.844953708E0,-7.961943054E0,3.870351563E0,2.041305084E0
1.854936708E0,-8.517288208E0,3.846401367E0,1.887425079E0
1.864920708E0,-9.199569397E0,3.654799805E0,1.655257874E0
1.874904708E0,-1.010743149E1,3.119213562E0,1.510658569E0
1.884888708E0,-1.064840652E1,2.226619720E0,1.312321014E0
1.894872708E0,-1.008333160E1,1.357227631E0,1.249302063E0
1.904855708E0,-8.875044250E0,5.737568665E-1,1.160686340E0
1.914839708E0,-7.490423584E0,-5.857319641E-1,9.761201477E-1
1.924823708E0,-5.838758240E0,-1.560055847E0,1.174906769E0
1.934807708E0,-4.134252777E0,-2.538271637E0,1.558109894E0
1.944790708E0,-2.534679108E0,-3.866609344E0,1.880838776E0
1.954774708E0,-1.226699066E0,-5.186714172E0,2.082918549E0
1.964758708E0,1.416055298E-1,-6.281387787E0,1.886077881E0
1.974742708E0,1.837578735E0,-7.465575256E0,1.083746338E0
1.984725708E0,3.799698486E0,-9.103020172E0,-4.788542175E-1
1.994709708E0,6.187233582E0,-1.042566971E1,-2.628084869E0
2.004693708E0,8.710985413E0,-1.181537979E1,-5.227579193E0
2.014677708E0,1.143801453E1,-1.403107224E1,-7.105274506E0
2.024661708E0,1.510793289E1,-1.656410477E1,-6.830895081E0
2.034644708E0,2.011157776E1,-1.852173386E1,-4.349355469E0
2.044628708E0,2.623145142E1,-1.927781158E1,-8.961863708E-1
2.054612708E0,3.426285004E1,-1.801698349E1,2.649190979E0
2.064596708E0,4.618555664E1,-1.354578140E1,6.951244812E0
2.074579708E0,5.758525085E1,-6.556365967E0,1.157917099E1
2.084563708E0,5.993476501E1,-3.361110535E0,1.322110657E1
2.094547708E0,5.449088562E1,-6.503376160E0,1.136137390E1
2.104531708E0,4.436369522E1,-7.248077545E0,7.549850006E0
2.114515708E0,3.719839554E1,-8.379873962E0,3.743714905E0
2.124498708E0,3.164015396E1,-9.001980286E0,1.998344421E0
2.134482708E0,2.663695816E1,-9.073232117E0,1.720222778E0
2.144466708E0,2.262829422E1,-9.298513641E0,2.233655090E0
2.154450708E0,1.935999069E1,-9.493258667E0,3.137026520E0
2.164433708E0,1.669717804E1,-9.609566803E0,4.277953949E0
2.174417708E0,1.436397995E1,-9.697284393E0,5.002896423E0
2.184401708E0,1.254526199E1,-9.562564545E0,5.084925842E0
2.194385708E0,1.096335159E1,-9.053473206E0,4.371659088E0
2.204369708E0,9.315278778E0,-8.287815399E0,3.102448425E0
2.214352708E0,7.746091919E0,-7.464677124E0,1.675166473E0
2.224336708E0,6.201304321E0,-6.557114410E0,4.981640625E-1
2.234320708E0,4.791086884E0,-5.506149902E0,-3.129991150E-1
2.244304708E0,3.701951752E0,-4.391417999E0,-9.559121704E-1
2.254287708E0,2.666854248E0,-3.367846527E0,-1.525178375E0
2.264271708E0,1.546434174E0,-2.413580933E0,-1.867815857E0
2.274255708E0,3.800596619E-1,-1.538800049E0,-2.059567108E0
2.284239708E0,-8.812174988E-1,-8.572673035E-1,-2.270029449E0
2.294222708E0,-2.099384308E0,-3.421884155E-1,-2.334096222E0
2.304206708E0,-3.262615356E0,-3.143463135E-3,-2.259401550E0
2.314190708E0,-4.287683716E0,2.580633545E-1,-1.987417145E0
2.324174708E0,-5.075495453E0,5.393284607E-1,-1.380429382E0
2.334158708E0,-5.733227692E0,8.996292114E-1,-5.939648438E-1
2.344141708E0,-6.318211212E0,1.428928528E0,4.025129700E-1
2.354125708E0,-7.012317810E0,1.922452240E0,1.485211487E0
2.364109708E0,-7.868836670E0,2.028132477E0,2.155367889E0
2.374093708E0,-8.680299225E0,2.014959869E0,2.612666931E0
2.384076708E0,-9.354796600E0,2.051184540E0,2.905607758E0
2.394060708E0,-9.892179108E0,2.066153412E0,3.264561310E0
2.404044708E0,-1.022628433E1,1.932780762E0,3.339405670E0
2.414028708E0,-1.023376877E1,1.810185699E0,3.344345398E0
2.424012708E0,-1.031909134E1,1.403930511E0,3.368145905E0
2.433995708E0,-1.028930328E1,4.555027771E-1,3.292104034E0
2.443979708E0,-9.382489014E0,-5.319937134E-1,3.359763336E0
2.453963708E0,-8.134833527E0,-1.705553284E0,3.562142487E0
2.463947708E0,-6.659501495E0,-3.095712433E0,3.677552490E0
2.473930708E0,-4.947212219E0,-4.654570770E0,3.406915283E0
2.483914708E0,-2.956801300E0,-6.513854370E0,2.647544403E0
2.493898708E0,-3.806584167E-1,-8.052804108E0,1.570534058E0
2.503882708E0,2.716101837E0,-9.207053833E0,-3.906875610E-2
2.513865708E0,5.768404541E0,-9.910740509E0,-1.833088074E0
2.523849708E0,8.172405396E0,-1.067954178E1,-3.787274323E0
2.533833708E0,9.513766022E0,-1.133038834E1,-4.988675995E0
2.543817708E0,1.091155930E1,-1.227776825E1,-4.961282959E0
2.553801708E0,1.409424088E1,-1.541569290E1,-5.673651581E0
2.563784708E0,1.736299347E1,-1.789768158E1,-4.592749329E0
2.573768708E0,2.170725952E1,-1.927556625E1,-2.421963501E0
2.583752708E0,2.863395538E1,-1.934696777E1,8.442443848E-1
2.593736708E0,3.887640610E1,-1.635888153E1,4.779560852E0
2.603719708E0,4.705644562E1,-6.994953918E0,9.126371613E0
2.613703708E0,5.031337280E1,-1.378184052E0,1.172107590E1
2.623687708E0,4.874583252E1,-6.320456543E0,1.093176727E1
2.633671708E0,4.331407791E1,-1.340642120E1,9.116342468E0
2.643655708E0,3.984085052E1,-1.805650131E1,6.783144379E0
2.653638708E0,3.534824295E1,-1.677561493E1,4.641996918E0
2.663622708E0,2.851240814E1,-1.136960678E1,3.551514587E0
2.673606708E0,2.693678467E1,-1.098101486E1,1.999841309E0
2.683590708E0,2.506851974E1,-1.099284027E1,2.336341553E0
2.693573708E0,2.098635864E1,-1.049392776E1,3.566932526E0
2.703557708E0,1.727347961E1,-1.085662354E1,4.220473480E0
2.713541708E0,1.453103256E1,-1.128503265E1,4.390220490E0
2.723525708E0,1.270393204E1,-1.114357681E1,4.340224457E0
2.733508708E0,1.169173691E1,-1.092398346E1,3.808979187E0
2.743492708E0,1.117680771E1,-1.028361511E1,3.144061890E0
2.753476708E0,1.071247330E1,-9.248517609E0,2.323618011E0
2.763460708E0,9.927355957E0,-8.174800415E0,1.237776031E0
2.773444708E0,8.594826965E0,-7.154372406E0,7.244934082E-2
2.783427708E0,7.095095673E0,-6.238876190E0,-7.774832153E-1
2.793411708E0,5.926475830E0,-5.403762817E0,-1.430425415E0
2.803395708E0,4.877906342E0,-4.460873566E0,-1.828298035E0
2.813379708E0,3.560046844E0,-3.533102875E0,-1.813179474E0
2.823362708E0,2.204316101E0,-2.814147949E0,-1.328038330E0
2.833346708E0,9.830058289E-1,-2.292033691E0,-6.210585022E-1
2.843330708E0,-2.032772827E-1,-2.023192749E0,9.924362183E-2
2.853314708E0,-1.492995300E0,-1.799258423E0,4.442761230E-1
2.863297708E0,-2.666405182E0,-1.230740662E0,5.134323120E-1
2.873281708E0,-3.588038635E0,-6.819818115E-1,5.884263611E-1
2.883265708E0,-4.736600189E0,-6.156697083E-1,9.770182800E-1
2.893249708E0,-5.567372589E0,-1.966909790E-1,1.685944061E0
2.903233708E0,-6.410718842E0,3.421884155E-1,2.397713928E0
2.913216708E0,-7.698790283E0,7.601193237E-1,2.839595032E0
2.923200708E0,-9.282047882E0,1.118474121E0,2.997816010E0
2.933184708E0,-1.111887817E1,1.371897125E0,2.872676239E0
2.943168708E0,-1.257385254E1,1.762884064E0,2.619702301E0
2.953151708E0,-1.320688614E1,2.177821198E0,2.510728912E0
2.963135708E0,-1.256546997E1,2.114652557E0,2.341730347E0
2.973119708E0,-1.175580368E1,2.131717072E0,2.842439117E0
2.983103708E0,-1.038734940E1,1.853146362E0,3.052901459E0
2.993087708E0,-8.796307983E0,8.572673035E-1,2.476450195E0
3.003070708E0,-7.210655365E0,2.573149109E-1,2.109263763E0
3.013054708E0,-5.776787109E0,-3.917353821E-1,1.688039703E0
3.023038708E0,-4.375251617E0,-1.472188568E0,1.073866882E0
3.033022708E0,-2.968177643E0,-2.675536194E0,1.044827271E-1
3.043005708E0,-1.664388885E0,-3.897744598E0,-9.888436890E-1
3.052989708E0,-5.674699402E-1,-5.501359863E0,-1.857187958E0
3.062973708E0,4.195774841E-1,-7.345075836E0,-2.344724121E0
3.072957708E0,1.662442932E0,-9.110354919E0,-2.185455322E0
3.082940708E0,3.774101715E0,-1.107472000E1,-1.887275391E0
3.092924708E0,6.552174683E0,-1.347887054E1,-2.501747589E0
3.102908708E0,9.756261749E0,-1.565190170E1,-3.814667358E0
3.112892708E0,1.313907715E1,-1.778316971E1,-4.904401245E0
3.122876708E0,1.697395248E1,-1.957943436E1,-5.143603821E0
3.132859708E0,2.201052887E1,-2.029943710E1,-3.847748566E0
3.142843708E0,2.651451279E1,-1.997595978E1,-1.304537201E0
3.152827708E0,3.323613510E1,-1.728365845E1,2.591710510E0
3.162811708E0,4.411176910E1,-1.044258453E1,7.862100677E0
3.172794708E0,5.170038849E1,-3.707490234E0,1.388662262E1
3.182778708E0,4.811624176E1,-4.985831909E0,1.714819016E1
3.192762708E0,3.851805130E1,-8.757538605E0,1.526420792E1
3.202746708E0,3.257540909E1,-1.143082947E1,9.548044739E0
3.212730708E0,2.991259644E1,-1.202868622E1,4.495601349E0
3.222713708E0,2.826946335E1,-1.176927567E1,1.139430542E0
3.232697708E0,2.687346634E1,-1.065379532E1,-7.207511902E-1
3.242681708E0,2.484802826E1,-8.423583069E0,-6.541397095E-2
3.252665708E0,2.362402359E1,-8.915759583E0,2.974314880E-1
3.262648708E0,2.160891403E1,-9.312883759E0,1.665736084E0
3.272632708E0,1.824166626E1,-9.033265228E0,3.326682129E0
3.282616708E0,1.555669968E1,-1.016700760E1,3.561244354E0
3.292600708E0,1.440978470E1,-1.097427887E1,3.216810608E0
3.302583708E0,1.382734589E1,-1.043225601E1,2.945724335E0
3.312567708E0,1.276859756E1,-9.470505981E0,2.525847473E0
3.322551708E0,1.124057510E1,-8.690777435E0,2.147284698E0
3.332535708E0,9.981842651E0,-7.804021454E0,1.947749634E0
3.342519708E0,9.519903259E0,-6.701414337E0,1.742227020E0
3.352502708E0,8.778644714E0,-5.484445038E0,1.203647003E0
3.362486708E0,7.278913422E0,-4.511318665E0,3.038681030E-1
3.372470708E0,5.693260803E0,-3.625011749E0,-2.671943665E-1
3.382454708E0,4.266128540E0,-2.926713867E0,-2.930905151E-1
3.392437708E0,3.325634308E0,-2.453847198E0,-2.338137817E-1
3.402421708E0,2.331401825E0,-1.961071930E0,-5.225633240E-1
3.412405708E0,1.044827271E0,-1.419498138E0,-8.490344238E-1
