"Time (s)","X (rad/s)","Y (rad/s)","Z (rad/s)"
2.166620833E-2,1.519349456E0,9.734494090E-1,-6.016806602E0
3.165020834E-2,1.565686226E0,1.140522599E0,-6.059691429E0
4.163420833E-2,1.589746833E0,1.222342849E0,-6.019951344E0
5.161820833E-2,1.589256763E0,1.114710927E0,-5.885042667E0
6.160220833E-2,1.560370326E0,8.697583675E-1,-5.703020096E0
7.158520833E-2,1.508183241E0,5.584348440E-1,-5.512963295E0
8.156920833E-2,1.442665339E0,2.447488606E-1,-5.338799953E0
9.155320833E-2,1.364823818E0,1.068577543E-2,-5.208678246E0
1.015372083E-1,1.258345723E0,-2.172635347E-1,-5.062153816E0
1.115202083E-1,1.089737773E0,-5.339927673E-1,-4.844264984E0
1.215042083E-1,8.875524402E-1,-8.485888839E-1,-4.600417137E0
1.314882083E-1,7.140773535E-1,-1.152065158E0,-4.360332012E0
1.414722083E-1,6.032702327E-1,-1.424834132E0,-4.129129410E0
1.514562083E-1,5.467912555E-1,-1.616497397E0,-3.878263950E0
1.614392083E-1,4.844903052E-1,-1.875189662E0,-3.595594883E0
1.714232083E-1,3.161636293E-1,-2.293029070E0,-3.333900452E0
1.814072083E-1,2.664435208E-1,-2.654783010E0,-2.884011745E0
1.913912083E-1,3.380679190E-1,-2.934952736E0,-2.316435337E0
2.013742083E-1,4.346666634E-1,-3.198866844E0,-1.696694016E0
2.113582083E-1,4.934849739E-1,-3.269969225E0,-1.063961267E0
2.213422083E-1,4.825261831E-1,-3.137868404E0,-3.693690300E-1
2.313262083E-1,4.141588211E-1,-2.716331482E0,4.400915802E-1
2.413102083E-1,2.853498161E-1,-1.927085280E0,1.400283456E0
2.512932083E-1,8.648677170E-2,-9.399039745E-1,2.450418949E0
2.612772083E-1,-1.817357987E-1,7.075044513E-2,3.490305424E0
2.712612083E-1,-4.822916389E-1,1.008556962E0,4.485827446E0
2.812452083E-1,-7.767556310E-1,1.810017586E0,5.409315586E0
2.912282083E-1,-1.036952853E0,2.351262093E0,6.256007195E0
3.012122083E-1,-1.265440345E0,2.620343685E0,7.029652119E0
3.111962083E-1,-1.407771707E0,2.818540096E0,7.698270798E0
3.211802083E-1,-1.493738651E0,2.918429136E0,8.352056503E0
3.311632083E-1,-1.520661116E0,2.893795729E0,9.002640724E0
3.411472083E-1,-1.481076837E0,2.427444458E0,9.482411385E0
3.511312083E-1,-1.311826825E0,1.405148625E0,9.658858299E0
3.611152083E-1,-1.031123877E0,-1.841831356E-1,9.447884560E0
3.710992083E-1,-9.174540639E-1,-2.083965540E0,8.939220428E0
3.810822083E-1,-9.608906507E-1,-3.401547432E0,7.996095181E0
3.910662083E-1,-1.147066474E0,-3.614701986E0,6.646617413E0
4.010502083E-1,-1.407696605E0,-2.720721006E0,5.436738014E0
4.110342083E-1,-1.588192940E0,-1.328215599E0,4.766838551E0
4.210182083E-1,-1.522793770E0,-8.426680416E-2,4.461754322E0
4.310012083E-1,-1.126742840E0,9.111700654E-1,4.054949284E0
4.409852083E-1,-6.035642028E-1,1.764600992E0,3.377473116E0
4.509692083E-1,-1.313958466E-1,2.311838627E0,2.407593966E0
4.609532083E-1,2.609093487E-1,2.512496471E0,1.092520714E0
4.709362083E-1,6.324882507E-1,2.350723982E0,-4.501025081E-1
4.809202083E-1,9.794711471E-1,1.686953068E0,-1.891544223E0
4.909042083E-1,1.308983445E0,8.439441919E-1,-3.073227406E0
5.008882083E-1,1.544922233E0,4.961128905E-2,-3.898883104E0
5.108722083E-1,1.666651607E0,-6.031369567E-1,-4.395034313E0
5.208552083E-1,1.724204659E0,-9.224748611E-1,-4.669736385E0
5.308392083E-1,1.778687358E0,-8.795585036E-1,-4.801526546E0
5.408232083E-1,1.851347327E0,-5.832428336E-1,-4.847805023E0
5.508072083E-1,1.943206668E0,-2.033037543E-1,-4.901463985E0
5.607902083E-1,2.058341026E0,2.384488881E-1,-5.012869358E0
5.707742083E-1,2.117248774E0,6.127635837E-1,-5.115682125E0
5.807582083E-1,2.083692551E0,8.572283983E-1,-5.200809002E0
5.907422083E-1,1.983795404E0,1.006635666E0,-5.275369167E0
6.007262083E-1,1.861002922E0,1.042555451E0,-5.321292400E0
6.107092083E-1,1.724522829E0,9.316744804E-1,-5.303594112E0
6.206932083E-1,1.587319493E0,6.825387478E-1,-5.209768295E0
6.306772083E-1,1.446955442E0,3.313657939E-1,-5.075578690E0
6.406612083E-1,1.301818967E0,-8.993879706E-2,-4.928129673E0
6.506442083E-1,1.154147506E0,-5.602940917E-1,-4.761570454E0
6.606282083E-1,1.032679200E0,-1.088637710E0,-4.590195656E0
6.706122083E-1,9.017872214E-1,-1.682520151E0,-4.391235828E0
6.805962083E-1,7.751741409E-1,-2.274176359E0,-4.114017010E0
6.905802083E-1,6.301676631E-1,-2.746176243E0,-3.830067396E0
7.005632083E-1,4.563821852E-1,-3.157898426E0,-3.581630468E0
7.105472083E-1,2.502268851E-1,-3.543288946E0,-3.354202032E0
7.205312083E-1,-3.406337649E-2,-4.032778263E0,-3.051323891E0
7.305152083E-1,-3.205561042E-1,-4.323218346E0,-2.722945452E0
7.404978333E-1,-5.728759766E-1,-4.170106888E0,-2.316698313E0
7.504818333E-1,-6.605916619E-1,-3.407654047E0,-1.763228178E0
7.604658333E-1,-4.444326162E-1,-2.276075363E0,-9.292613268E-1
7.704498333E-1,-2.491912097E-1,-1.079175234E0,1.943284720E-1
7.804338333E-1,-1.502812654E-1,1.738383472E-1,1.414714932E0
7.904168333E-1,-2.882785499E-1,1.156884789E0,2.509541512E0
8.004008333E-1,-5.653068423E-1,1.724076152E0,3.492496967E0
8.103848333E-1,-8.046438098E-1,1.931412220E0,4.375534058E0
8.203688333E-1,-8.753970861E-1,1.899463415E0,5.125406265E0
8.303518333E-1,-8.005071282E-1,1.768091798E0,5.781559944E0
8.403358333E-1,-6.781822443E-1,1.625895858E0,6.475606441E0
8.503198333E-1,-5.754840970E-1,1.659301758E0,7.171311378E0
8.603038333E-1,-5.236065984E-1,1.895187736E0,7.883542538E0
8.702878333E-1,-5.511540771E-1,2.281672955E0,8.740117073E0
8.802708333E-1,-6.378218532E-1,2.767986774E0,9.652963638E0
8.902548333E-1,-8.056539893E-1,3.041540623E0,1.039765167E1
9.002388333E-1,-1.112353206E0,2.909339428E0,1.077152061E1
9.102228333E-1,-1.516921997E0,2.310207844E0,1.070281410E1
9.202058333E-1,-2.162000656E0,1.217277169E0,9.756408691E0
9.301898333E-1,-3.001560926E0,-2.220695764E-1,7.822992802E0
9.401738333E-1,-3.454251766E0,-1.605355620E0,5.813943386E0
9.501578333E-1,-3.275648594E0,-1.970275283E0,4.061514854E0
9.601418333E-1,-2.632098198E0,-1.361125350E0,2.652337313E0
9.701248333E-1,-1.721577764E0,-4.111734778E-2,1.463003278E0
9.801088333E-1,-6.720213890E-1,1.179167271E0,4.902877212E-1
9.900928333E-1,3.073537052E-1,1.745558262E0,-3.199691772E-1
1.000076833E0,1.055228710E0,1.756379366E0,-1.157444119E0
1.010059833E0,1.522060037E0,1.479626775E0,-2.066831827E0
1.020043833E0,1.760205269E0,1.015273690E0,-2.988055229E0
1.030027833E0,1.862161160E0,5.023315549E-1,-3.846548319E0
1.040011833E0,1.877596974E0,1.426847093E-2,-4.533321381E0
1.049994833E0,1.887329817E0,-3.380211294E-1,-5.011633396E0
1.059978833E0,1.961587071E0,-4.543986320E-1,-5.295221806E0
1.069962833E0,2.057741642E0,-3.694256842E-1,-5.412589550E0
1.079946833E0,2.124660254E0,-1.267572939E-1,-5.392443657E0
1.089930833E0,2.168541670E0,2.118167579E-1,-5.305488586E0
1.099913833E0,2.228174686E0,6.065100431E-1,-5.235915661E0
1.109897833E0,2.261451006E0,9.508538246E-1,-5.226302147E0
1.119881833E0,2.225587130E0,1.191664219E0,-5.259829044E0
1.129865833E0,2.115746737E0,1.293650746E0,-5.270283699E0
1.139849833E0,1.944313288E0,1.264890552E0,-5.263902664E0
1.149832833E0,1.782827020E0,1.108570457E0,-5.255745411E0
1.159816833E0,1.611972451E0,7.371079922E-1,-5.191756725E0
1.169800833E0,1.444332242E0,2.266681790E-1,-5.056357384E0
1.179784833E0,1.226636291E0,-2.784386873E-1,-4.825013161E0
1.189767833E0,9.782587290E-1,-6.370424032E-1,-4.608210564E0
1.199751833E0,8.237777948E-1,-1.103622675E0,-4.426023960E0
1.209735833E0,8.318905830E-1,-1.556727648E0,-4.250519753E0
1.219719833E0,8.703379035E-1,-1.908452988E0,-4.098752975E0
1.229703833E0,8.430019021E-1,-2.369471550E0,-3.893874645E0
1.239686833E0,7.390540838E-1,-2.926321983E0,-3.660421133E0
1.249670833E0,6.520909667E-1,-3.395354509E0,-3.419924736E0
1.259654833E0,6.078675985E-1,-3.747169495E0,-3.130330324E0
1.269638833E0,5.621275306E-1,-3.905015707E0,-2.766950846E0
1.279621833E0,4.562129676E-1,-3.774103165E0,-2.277591228E0
1.289605833E0,2.880031765E-1,-3.300837278E0,-1.637381673E0
1.299589833E0,8.747417480E-2,-2.495019436E0,-8.474543691E-1
1.309573833E0,-1.185330525E-1,-1.571647167E0,3.661788628E-2
1.319557833E0,-3.360714316E-1,-7.385773063E-1,9.290890098E-1
1.329540833E0,-4.822158515E-1,-1.209886372E-1,1.763218522E0
1.339524833E0,-4.801166952E-1,3.429725170E-1,2.555102348E0
1.349508833E0,-3.178739846E-1,3.991468251E-1,3.409744024E0
1.359492833E0,-2.560337819E-2,8.115500957E-2,4.284556866E0
1.369475833E0,3.069761992E-1,-2.852605283E-1,5.062181473E0
1.379459833E0,5.601753592E-1,-5.900675058E-1,5.728035450E0
1.389443833E0,7.485545874E-1,-5.040809512E-1,6.333871365E0
1.399427833E0,9.102352858E-1,-1.626082929E-3,7.010320187E0
1.409411833E0,1.052111745E0,8.198398352E-1,7.760807514E0
1.419394833E0,1.086997390E0,1.919266701E0,8.562127113E0
1.429378833E0,9.540801048E-1,3.178389072E0,9.395631790E0
1.439362833E0,5.426300764E-1,4.227377892E0,1.007956314E1
1.449346833E0,-4.655058384E-1,4.310484409E0,1.025909996E1
1.459329833E0,-2.016098261E0,3.046275377E0,9.775102615E0
1.469313833E0,-3.546279192E0,8.312116861E-1,8.822195053E0
1.479297833E0,-4.184622765E0,-1.479952931E0,7.888053894E0
1.489281833E0,-3.822292089E0,-3.112030983E0,7.011498928E0
1.499264833E0,-3.033295631E0,-3.174508095E0,6.047191620E0
1.509248833E0,-2.232693195E0,-1.699351788E0,5.061608315E0
1.519232833E0,-1.352598071E0,1.349811196E0,3.416120052E0
1.529216833E0,-6.319173574E-1,4.266464233E0,1.332109332E0
1.539200833E0,1.381632835E-1,5.125903130E0,5.442849360E-3
1.549183833E0,8.775318861E-1,4.105407238E0,-6.689201593E-1
1.559167833E0,1.373390794E0,2.477346420E0,-1.578650832E0
1.569151833E0,1.564797282E0,9.779778123E-1,-2.623892784E0
1.579135833E0,1.552825809E0,-2.770838886E-2,-3.516025305E0
1.589119833E0,1.505756855E0,-3.997935355E-1,-4.238509178E0
1.599102833E0,1.457219839E0,-3.645402789E-1,-4.776952744E0
1.609086833E0,1.449022651E0,-1.855891794E-1,-5.093135357E0
1.619070833E0,1.571368217E0,4.378354177E-2,-5.235890865E0
1.629054833E0,1.824999452E0,3.280448318E-1,-5.307549953E0
1.639037833E0,2.119264841E0,5.641563535E-1,-5.370866776E0
1.649021833E0,2.375481129E0,7.102984190E-1,-5.431417465E0
1.659005833E0,2.554321766E0,7.603516579E-1,-5.510051727E0
1.668989833E0,2.634300470E0,7.285812497E-1,-5.604293823E0
1.678972833E0,2.607131720E0,6.739425063E-1,-5.710775375E0
1.688956833E0,2.460469484E0,5.203852057E-1,-5.786412239E0
1.698940833E0,2.232971907E0,2.037516832E-1,-5.791252613E0
1.708924833E0,1.968988061E0,-2.469414473E-1,-5.691986561E0
1.718908833E0,1.721106052E0,-7.186400294E-1,-5.508513927E0
1.728891833E0,1.489819288E0,-1.154749513E0,-5.244063377E0
1.738875708E0,1.261635423E0,-1.569340706E0,-4.908421993E0
1.748859708E0,1.024770141E0,-1.951194525E0,-4.541660786E0
1.758843708E0,7.946196795E-1,-2.249298811E0,-4.165404797E0
1.768826708E0,6.001607180E-1,-2.521713734E0,-3.801001310E0
1.778810708E0,4.708055258E-1,-2.810056210E0,-3.476388693E0
1.788794708E0,4.015087485E-1,-3.114675999E0,-3.183397532E0
1.798778708E0,3.919695914E-1,-3.433852434E0,-2.922503710E0
1.808762708E0,4.474658668E-1,-3.771991730E0,-2.645901680E0
1.818745708E0,5.164182782E-1,-4.057733536E0,-2.281434774E0
1.828729708E0,5.721678734E-1,-4.085304737E0,-1.806611419E0
1.838713708E0,5.965492129E-1,-3.715214252E0,-1.197137594E0
1.848697708E0,5.521961451E-1,-2.946400642E0,-4.439319968E-1
1.858680708E0,4.328397810E-1,-1.849652529E0,4.803291261E-1
1.868664708E0,2.403640896E-1,-5.655524135E-1,1.596141458E0
1.878648708E0,-4.787645768E-3,6.220165491E-1,2.795228720E0
1.888632708E0,-2.357284576E-1,1.494019270E0,3.860063314E0
1.898616708E0,-3.941354454E-1,1.976898789E0,4.741601944E0
1.908599708E0,-5.019292831E-1,2.119703531E0,5.482662678E0
1.918583708E0,-5.539824367E-1,1.984298468E0,6.022687435E0
1.928567708E0,-4.783497751E-1,1.623492599E0,6.405202389E0
1.938551708E0,-2.454445213E-1,1.197632551E0,6.678738594E0
1.948534708E0,8.285080642E-2,8.297805786E-1,6.883546352E0
1.958518708E0,4.394963980E-1,5.469023585E-1,7.056841373E0
1.968502708E0,7.273343205E-1,5.135555863E-1,7.259646416E0
1.978486708E0,8.256339431E-1,8.903737664E-1,7.502598763E0
1.988469708E0,5.645413995E-1,1.497703910E0,7.686769962E0
1.998453708E0,-1.457525641E-1,1.661861658E0,7.782334328E0
2.008437708E0,-1.093937159E0,1.046356440E0,7.791182995E0
2.018421708E0,-1.833902121E0,-1.906438321E-1,7.775407314E0
2.028405708E0,-2.066564083E0,-1.535517216E0,7.756845474E0
2.038388708E0,-1.775546908E0,-2.318151474E0,7.704920292E0
2.048372708E0,-1.262659669E0,-1.847307444E0,7.496199608E0
2.058356708E0,-7.925819159E-1,6.170495600E-2,6.640510559E0
2.068340708E0,-4.010926783E-1,2.894351244E0,4.841235161E0
2.078323708E0,6.860891730E-2,5.180196762E0,2.653588295E0
2.088307708E0,6.762440205E-1,5.944892406E0,5.005394220E-1
2.098291708E0,1.159506679E0,4.497812748E0,-1.006857991E0
2.108275708E0,1.345307112E0,2.298957348E0,-2.366297960E0
2.118259708E0,1.278083563E0,3.833564222E-1,-3.570699453E0
2.128242708E0,1.050443769E0,-7.205401063E-1,-4.494756222E0
2.138226708E0,7.735728621E-1,-9.331336021E-1,-5.182795048E0
2.148210708E0,5.690029263E-1,-6.006726027E-1,-5.602479458E0
2.158194708E0,5.403085947E-1,-7.009873167E-3,-5.857746601E0
2.168177708E0,7.074650526E-1,5.853533149E-1,-5.992741108E0
2.178161708E0,1.006812692E0,1.030045271E0,-6.043259621E0
2.188145708E0,1.324669480E0,1.315462589E0,-6.067902565E0
2.198129708E0,1.560911894E0,1.418620586E0,-6.055491924E0
2.208113708E0,1.688145161E0,1.384388566E0,-5.990231991E0
2.218096708E0,1.740746856E0,1.259056807E0,-5.886981487E0
2.228080708E0,1.732160807E0,1.086419702E0,-5.748185158E0
2.238064708E0,1.659425616E0,8.698774576E-1,-5.627443314E0
2.248048708E0,1.521109819E0,6.092879176E-1,-5.532142639E0
2.258031708E0,1.344743848E0,3.113964796E-1,-5.449756145E0
2.268015708E0,1.158648610E0,-1.533203060E-3,-5.373046398E0
2.277999708E0,9.568276405E-1,-3.427507877E-1,-5.270893097E0
2.287983708E0,7.420780659E-1,-7.011507750E-1,-5.115471840E0
2.297966708E0,5.321260095E-1,-1.107033372E0,-4.911875725E0
2.307950708E0,3.608437181E-1,-1.589953661E0,-4.653420448E0
2.317934708E0,2.650567293E-1,-2.178767443E0,-4.367493629E0
2.327918708E0,2.498958856E-1,-2.857201576E0,-4.084425449E0
2.337902708E0,3.006165624E-1,-3.519909620E0,-3.815644026E0
2.347885708E0,3.938229382E-1,-4.029078007E0,-3.511041641E0
2.357869708E0,4.896824360E-1,-4.341600895E0,-3.068631649E0
2.367853708E0,5.568460226E-1,-4.416473389E0,-2.467256308E0
2.377837708E0,5.642747879E-1,-4.197731495E0,-1.720246196E0
2.387820708E0,5.313681960E-1,-3.586011648E0,-8.457684517E-1
2.397804708E0,4.633485377E-1,-2.677852631E0,1.531706750E-1
2.407788708E0,3.940818608E-1,-1.563445807E0,1.227285504E0
2.417772708E0,3.314009607E-1,-3.824955225E-1,2.361553431E0
2.427756708E0,2.695817947E-1,6.027643681E-1,3.512769938E0
2.437739708E0,2.491497993E-1,1.271331787E0,4.566154957E0
2.447723708E0,3.209022582E-1,1.624850512E0,5.493164062E0
2.457707708E0,4.885151982E-1,1.735921264E0,6.303018570E0
2.467691708E0,6.757801175E-1,1.778288484E0,7.012259960E0
2.477674708E0,8.173521757E-1,1.844344378E0,7.690228462E0
2.487658708E0,8.817008138E-1,2.063754320E0,8.270319939E0
2.497642708E0,8.035250902E-1,2.315151453E0,8.696391106E0
2.507626708E0,5.431036353E-1,2.636864662E0,8.947420120E0
2.517609708E0,4.220604897E-2,2.948864937E0,9.099741936E0
2.527593708E0,-6.805087328E-1,2.996052980E0,9.211932182E0
2.537577708E0,-1.343095422E0,2.336788654E0,9.338398933E0
2.547561708E0,-1.996573567E0,8.931277990E-1,9.312773705E0
2.557545708E0,-2.439307690E0,-8.158928156E-1,9.142431259E0
2.567528708E0,-2.492378235E0,-2.476867199E0,8.869500160E0
2.577512708E0,-2.051030159E0,-3.466231346E0,8.360211372E0
2.587496708E0,-1.342268467E0,-3.015330553E0,7.310296535E0
2.597480708E0,-7.439894080E-1,-1.376977205E0,6.046426296E0
2.607463708E0,-5.049563646E-1,1.098348379E0,4.592966080E0
2.617447708E0,-3.178368211E-1,2.973625422E0,3.109683990E0
2.627431708E0,2.078783512E-1,3.556717873E0,1.569806576E0
2.637415708E0,9.200435281E-1,3.129766226E0,-3.106296659E-1
2.647399708E0,1.498461008E0,1.740206957E0,-1.906380653E0
2.657382708E0,1.624002934E0,1.691126674E-1,-2.614794016E0
2.667366708E0,1.191931486E0,-3.718113005E-1,-3.422393560E0
2.677350708E0,7.225954533E-1,-1.201830283E-1,-4.352298737E0
2.687334708E0,5.348279476E-1,2.740953267E-1,-5.015919685E0
2.697317708E0,5.356480479E-1,5.681148171E-1,-5.426676273E0
2.707301708E0,6.552075148E-1,7.570703626E-1,-5.704907417E0
2.717285708E0,8.725684285E-1,8.446025252E-1,-5.879490376E0
2.727269708E0,1.085534573E0,8.136675358E-1,-5.990477085E0
2.737252708E0,1.248880148E0,7.552303076E-1,-6.119381905E0
2.747236708E0,1.331541538E0,6.988669038E-1,-6.258068562E0
2.757220708E0,1.313470483E0,6.606847644E-1,-6.390279770E0
2.767204708E0,1.186436176E0,5.910516381E-1,-6.482034206E0
2.777188708E0,9.877202511E-1,4.819564521E-1,-6.499748707E0
2.787171708E0,7.625163794E-1,3.976892233E-1,-6.495365143E0
2.797155708E0,5.309154987E-1,3.074173629E-1,-6.482288361E0
2.807139708E0,3.187816441E-1,1.908087432E-1,-6.429241657E0
2.817123708E0,1.614918113E-1,-1.979565015E-3,-6.327225208E0
2.827106708E0,1.030511409E-1,-2.534860969E-1,-6.195161819E0
2.837090708E0,1.566949785E-1,-5.416775346E-1,-6.045788288E0
2.847074708E0,2.467223406E-1,-8.836652040E-1,-5.851665497E0
2.857058708E0,3.004750609E-1,-1.309606433E0,-5.645738125E0
2.867041708E0,2.885417044E-1,-1.773993015E0,-5.443223953E0
2.877025708E0,3.001476228E-1,-2.285416603E0,-5.154244900E0
2.887009708E0,3.671908379E-1,-2.755454063E0,-4.821724892E0
2.896993708E0,4.779613018E-1,-3.105309248E0,-4.447765827E0
2.906977708E0,5.829178095E-1,-3.184945345E0,-3.945405006E0
2.916960708E0,6.477686167E-1,-2.861925840E0,-3.241416931E0
2.926944708E0,6.018522382E-1,-2.110490799E0,-2.266828537E0
2.936928708E0,4.409441650E-1,-1.072353601E0,-1.065562367E0
2.946912708E0,2.330740690E-1,-3.144965321E-2,2.464074194E-1
2.956895708E0,5.566927791E-2,7.364157438E-1,1.478347182E0
2.966879708E0,6.312115584E-3,1.149788976E0,2.544272661E0
2.976863708E0,8.076059818E-2,1.259840250E0,3.448942900E0
2.986847708E0,1.692252159E-1,1.021087050E0,4.174159527E0
2.996831708E0,2.655413747E-1,6.488165259E-1,4.727067471E0
3.006814708E0,4.140866399E-1,2.824047208E-1,5.195775986E0
3.016798708E0,5.575619340E-1,5.371250957E-2,5.649415970E0
3.026782708E0,6.035744548E-1,4.712171853E-2,6.109030247E0
3.036766708E0,4.922617674E-1,2.734006941E-1,6.609236717E0
3.046749708E0,2.279385030E-1,8.060960174E-1,7.194601536E0
3.056733708E0,-1.873166859E-1,1.549743056E0,7.891047955E0
3.066717708E0,-6.743457317E-1,2.177866697E0,8.592836380E0
3.076701708E0,-1.092419982E0,2.500037193E0,9.183501244E0
3.086684708E0,-1.448113918E0,2.399725914E0,9.644326210E0
3.096668708E0,-1.852721095E0,1.599357963E0,9.871943474E0
3.106652708E0,-2.276353598E0,-1.265453100E-1,9.737958908E0
3.116636708E0,-2.575245142E0,-2.220312595E0,9.353337288E0
3.126620708E0,-2.608793497E0,-3.889776230E0,8.811095238E0
3.136603708E0,-2.332395315E0,-4.511160374E0,8.251523018E0
3.146587708E0,-1.913493752E0,-3.588183403E0,7.510649681E0
3.156571708E0,-1.634145498E0,-1.091087937E0,6.114071369E0
3.166555708E0,-1.336286306E0,2.322314739E0,4.028896809E0
3.176538708E0,-4.349215925E-1,4.613410473E0,2.132166147E0
3.186522708E0,8.399829268E-1,4.569862366E0,9.711462259E-1
3.196506708E0,1.785840511E0,2.721282482E0,7.299733907E-2
3.206490708E0,2.262528658E0,4.563283026E-1,-8.604675531E-1
3.216474708E0,2.229818821E0,-1.051031351E0,-1.757742643E0
3.226457708E0,1.710727572E0,-1.417487383E0,-2.542591810E0
3.236441708E0,1.123811126E0,-9.778529406E-1,-3.176639080E0
3.246425708E0,5.627239943E-1,-2.199918479E-1,-3.827267885E0
3.256409708E0,2.099987864E-1,6.439640522E-1,-4.505529881E0
3.266392708E0,2.471874356E-1,1.117917061E0,-4.926190376E0
3.276376708E0,4.490329027E-1,1.256078839E0,-5.210512161E0
3.286360708E0,6.912494898E-1,1.265763998E0,-5.461709976E0
3.296344708E0,9.248197675E-1,1.266958594E0,-5.702492237E0
3.306327708E0,1.078935385E0,1.219413996E0,-5.889334202E0
3.316311708E0,1.160110235E0,1.112302303E0,-5.980519295E0
3.326295708E0,1.238232732E0,9.792437553E-1,-5.977022171E0
3.336279708E0,1.354447126E0,9.771544337E-1,-5.986747265E0
3.346263708E0,1.463755250E0,1.185839415E0,-6.040067673E0
3.356246708E0,1.442393541E0,1.278912067E0,-6.021066189E0
3.366230708E0,1.349561810E0,1.096629620E0,-5.916569710E0
3.376214708E0,1.297215581E0,7.972214818E-1,-5.796894550E0
3.386198708E0,1.300707817E0,4.679203033E-1,-5.703374863E0
3.396181708E0,1.287042856E0,1.018373817E-1,-5.618666172E0
3.406165708E0,1.223761082E0,-3.020816147E-1,-5.472258568E0
