"Time (s)","X (rad/s)","Y (rad/s)","Z (rad/s)"
1.638616667E-2,8.542558551E-2,-4.930850118E-2,5.095883831E-2
2.637016666E-2,-4.699722677E-2,-6.128406152E-3,1.159479320E-1
3.635316667E-2,-1.944817454E-1,9.671940655E-2,1.238726974E-1
4.633716666E-2,-3.100663722E-1,1.400185972E-1,1.138880178E-1
5.632116666E-2,-4.083599448E-1,9.936144203E-2,9.186287969E-2
6.630416666E-2,-5.030601025E-1,1.538225636E-2,4.435304925E-2
7.628816666E-2,-5.681786537E-1,-1.037262902E-1,3.068993101E-3
8.627116666E-2,-6.021847725E-1,-1.020699367E-1,-1.720741764E-2
9.625516666E-2,-6.089284420E-1,-1.004834920E-1,4.924782552E-3
1.062381667E-1,-5.943856835E-1,-1.920898855E-1,4.824640974E-2
1.162221667E-1,-5.750215650E-1,-2.321603447E-1,2.300736494E-2
1.262061667E-1,-5.530143380E-1,-2.769034505E-1,-3.019463085E-2
1.361891667E-1,-5.776983500E-1,-4.407722652E-1,-1.605990343E-2
1.461731667E-1,-6.840727925E-1,-6.225916147E-1,3.854082525E-2
1.561561667E-1,-9.067098498E-1,-7.119819522E-1,1.305703521E-1
1.661401667E-1,-1.260424852E0,-7.576740980E-1,2.605805993E-1
1.761231667E-1,-1.632057786E0,-7.952246666E-1,3.809334040E-1
1.861071667E-1,-1.925476313E0,-7.920291424E-1,4.560275674E-1
1.960911667E-1,-2.121982336E0,-7.414948344E-1,4.995758533E-1
2.060741667E-1,-2.218471050E0,-6.936613917E-1,5.008817911E-1
2.160581667E-1,-2.231107950E0,-7.144681215E-1,4.597117305E-1
2.260411667E-1,-2.133953810E0,-8.622372150E-1,3.843140602E-1
2.360251667E-1,-1.993661642E0,-1.151727438E0,3.246611059E-1
2.460091667E-1,-1.871397376E0,-1.655479193E0,2.685469389E-1
2.559921667E-1,-1.818365335E0,-2.347486258E0,2.074864954E-1
2.659761667E-1,-1.809271693E0,-3.217403412E0,1.478591561E-1
2.759591667E-1,-1.812253118E0,-4.157382488E0,1.148761734E-1
2.859431667E-1,-1.815280676E0,-5.053681850E0,1.564712077E-1
2.959261667E-1,-1.823387146E0,-5.839641571E0,2.918532491E-1
3.059101667E-1,-1.813971519E0,-6.405253887E0,5.586280823E-1
3.158941667E-1,-1.811735272E0,-6.578445435E0,1.001619101E0
3.258771667E-1,-1.778544426E0,-6.419880867E0,1.600947261E0
3.358611667E-1,-1.686607480E0,-5.987067223E0,2.330153942E0
3.458441667E-1,-1.642118335E0,-5.197755814E0,3.215531826E0
3.558281667E-1,-1.714076161E0,-4.053729534E0,4.267848015E0
3.658111667E-1,-1.841778636E0,-3.042121649E0,5.356019497E0
3.757951667E-1,-1.875591397E0,-2.359035969E0,6.262586117E0
3.857791667E-1,-1.762725830E0,-1.796477795E0,6.867245197E0
3.957621667E-1,-1.574328065E0,-1.427486658E0,7.160938740E0
4.057461667E-1,-1.457068920E0,-1.075825095E0,6.974634647E0
4.157291667E-1,-1.491612792E0,-6.449811459E-1,6.243516445E0
4.257131667E-1,-1.607456923E0,-8.345364034E-2,5.185000420E0
4.356971667E-1,-1.635199308E0,4.954914749E-1,4.052850723E0
4.456801667E-1,-1.402908087E0,9.018734694E-1,2.978572369E0
4.556641667E-1,-1.020874381E0,9.568608403E-1,2.015292883E0
4.656471667E-1,-6.038686633E-1,6.912135482E-1,1.181920409E0
4.756311667E-1,-2.229231894E-1,3.559983075E-1,4.606304765E-1
4.856141667E-1,3.047298454E-2,1.244213432E-1,-1.581676304E-1
4.955981667E-1,1.158981398E-1,1.011237502E-1,-7.355988026E-1
5.055821667E-1,8.016885817E-2,2.561524510E-1,-1.264521599E0
5.155651667E-1,4.176820442E-2,5.032767057E-1,-1.734318972E0
5.255491667E-1,5.637421831E-2,7.235386968E-1,-2.188584328E0
5.355321667E-1,1.247066706E-1,9.542453885E-1,-2.678076744E0
5.455161667E-1,3.190425932E-1,1.118828416E0,-3.046369076E0
5.554991667E-1,3.781954050E-1,1.077972412E0,-3.472648382E0
5.654831667E-1,3.199610412E-1,1.041403890E0,-4.043496132E0
5.754671667E-1,2.900966108E-1,1.043482780E0,-4.602283955E0
5.854501667E-1,4.237233996E-1,1.002971888E0,-4.957826614E0
5.954341667E-1,5.605792403E-1,1.005447030E0,-5.143457890E0
6.054171667E-1,5.345471501E-1,1.100167632E0,-5.303948402E0
6.154011667E-1,3.194662333E-1,1.316795826E0,-5.499817848E0
6.253841667E-1,1.043016985E-1,1.560076118E0,-5.583194256E0
6.353681667E-1,-1.865426600E-1,1.657151699E0,-5.651772022E0
6.453521667E-1,-4.771395326E-1,1.704707861E0,-5.750773907E0
6.553351667E-1,-6.010433435E-1,1.628069282E0,-5.763659477E0
6.653191667E-1,-5.375583768E-1,1.323415160E0,-5.663022995E0
6.753021667E-1,-4.509353936E-1,9.686181545E-1,-5.546440601E0
6.852861667E-1,-3.844437301E-1,6.995525360E-1,-5.470965862E0
6.952701667E-1,-3.511587679E-1,5.766921043E-1,-5.409571648E0
7.052531667E-1,-3.547418118E-1,5.475836396E-1,-5.252182961E0
7.152371667E-1,-3.762231171E-1,5.343836546E-1,-5.013191700E0
7.252201667E-1,-4.027614594E-1,5.576890707E-1,-4.671325207E0
7.352041667E-1,-3.934417367E-1,4.329761565E-1,-4.204726219E0
7.451871667E-1,-2.829316556E-1,-2.029163018E-2,-3.665220976E0
7.551711667E-1,-9.303627908E-2,-6.977470517E-1,-3.144556522E0
7.651551667E-1,1.004425660E-1,-1.418024778E0,-2.711469650E0
7.751379167E-1,2.695356905E-1,-2.106838942E0,-2.350483418E0
7.851219167E-1,3.926133811E-1,-2.656707525E0,-1.997021198E0
7.951049167E-1,4.675155878E-1,-2.994235992E0,-1.645147800E0
8.050889167E-1,4.965572059E-1,-3.078664780E0,-1.303944707E0
8.150719167E-1,4.967337549E-1,-2.940769911E0,-9.464464188E-1
8.250559167E-1,4.933582544E-1,-2.554383516E0,-5.255132914E-1
8.350399167E-1,4.768794179E-1,-1.959055305E0,-3.467149101E-3
8.450229167E-1,4.601253867E-1,-1.264444470E0,6.180105209E-1
8.550069167E-1,4.497321248E-1,-5.882856250E-1,1.301873803E0
8.649899167E-1,4.384885132E-1,9.796808474E-3,2.013338566E0
8.749739167E-1,4.467674792E-1,5.042030811E-1,2.748607159E0
8.849569167E-1,5.138751864E-1,9.243448377E-1,3.486474514E0
8.949409167E-1,7.183244228E-1,1.711599469E0,4.172954082E0
9.049249167E-1,8.398269415E-1,2.284682512E0,4.896304131E0
9.149079167E-1,8.014159203E-1,2.702578783E0,5.545692444E0
9.248919167E-1,7.778345942E-1,3.082664251E0,6.050915241E0
9.348749167E-1,7.219737172E-1,3.164485455E0,6.485267162E0
9.448589167E-1,6.561269760E-1,2.974780321E0,6.776094437E0
9.548429167E-1,6.067615747E-1,2.396149397E0,6.831097603E0
9.648259167E-1,5.901230574E-1,1.336452484E0,6.569693565E0
9.748099167E-1,6.757591367E-1,-3.825234249E-2,5.895901680E0
9.847929167E-1,8.828111291E-1,-1.614263773E0,4.904879093E0
9.947769167E-1,1.284003139E0,-3.169389725E0,4.055067062E0
1.004759917E0,1.745353222E0,-4.527298450E0,3.684750795E0
1.014743917E0,1.951067805E0,-5.117927551E0,3.968714714E0
1.024727917E0,1.703266025E0,-4.452778816E0,4.694077492E0
1.034710917E0,1.131525755E0,-2.920321941E0,5.285573483E0
1.044694917E0,4.388666749E-1,-1.734442353E0,5.217096806E0
1.054677917E0,-1.890302822E-2,-7.425961494E-1,4.028712749E0
1.064661917E0,-2.418932021E-1,1.001645252E-1,2.151188374E0
1.074644917E0,-3.397122025E-1,6.111367345E-1,1.358696520E-1
1.084628917E0,-2.857193053E-1,9.447129369E-1,-1.591130137E0
1.094612917E0,-1.645468175E-1,1.115442634E0,-2.785029650E0
1.104595917E0,-1.020220853E-2,1.159148216E0,-3.467977285E0
1.114579917E0,1.325671971E-1,1.222781539E0,-3.787913084E0
1.124562917E0,2.504003644E-1,1.338543177E0,-3.836404085E0
1.134546917E0,3.653495908E-1,1.425353765E0,-3.732064486E0
1.144530917E0,4.971691668E-1,1.449784875E0,-3.665618896E0
1.154513917E0,6.257691979E-1,1.461777091E0,-3.806408882E0
1.164497917E0,7.166858912E-1,1.524297237E0,-4.156929970E0
1.174480917E0,7.635700107E-1,1.573760033E0,-4.576671124E0
1.184464917E0,7.795889378E-1,1.510111332E0,-4.995550156E0
1.194447917E0,8.456904292E-1,1.350578904E0,-5.327307701E0
1.204431917E0,8.506246805E-1,9.944484830E-1,-5.585615158E0
1.214415917E0,7.377652526E-1,5.823307037E-1,-5.793699741E0
1.224398917E0,5.918514132E-1,1.920204908E-1,-5.906785965E0
1.234382917E0,4.227409065E-1,-2.704834938E-1,-5.873373032E0
1.244365917E0,2.728502750E-1,-7.298567295E-1,-5.720108509E0
1.254349917E0,1.735761613E-1,-1.065445900E0,-5.464130402E0
1.264332917E0,1.181741580E-1,-1.284362793E0,-5.094736576E0
1.274316917E0,7.795030624E-2,-1.486603260E0,-4.617657661E0
1.284300917E0,2.002982050E-2,-1.650943398E0,-4.072652817E0
1.294283917E0,-4.297124967E-2,-1.771562696E0,-3.536653757E0
1.304267917E0,-8.713597059E-2,-1.876789808E0,-3.013636827E0
1.314250917E0,-6.345061958E-2,-1.950558543E0,-2.522040606E0
1.324234917E0,5.096287280E-2,-1.889090776E0,-2.070173264E0
1.334218917E0,1.761311740E-1,-1.743739724E0,-1.661987543E0
1.344201917E0,2.683136165E-1,-1.570038795E0,-1.280542254E0
1.354185917E0,3.332545161E-1,-1.370677114E0,-9.040631652E-1
1.364168917E0,3.985144496E-1,-1.144673824E0,-5.271637440E-1
1.374152917E0,4.764817059E-1,-9.295529723E-1,-1.385544986E-1
1.384135917E0,5.645217896E-1,-7.219190001E-1,2.736561596E-1
1.394119917E0,6.502838135E-1,-4.932125807E-1,7.323797941E-1
1.404103917E0,6.894696355E-1,-2.944890261E-1,1.217240214E0
1.414086917E0,6.684527397E-1,-1.260539293E-1,1.698210359E0
1.424070917E0,6.111071706E-1,2.483869717E-2,2.188913107E0
1.434053917E0,5.233347416E-1,1.631385088E-1,2.686218977E0
1.444037917E0,4.299693108E-1,4.173139930E-1,3.224137783E0
1.454020917E0,3.350982070E-1,8.349881768E-1,3.890754938E0
1.464004917E0,2.179860473E-1,1.398185968E0,4.721876144E0
1.473988917E0,6.728895009E-2,2.167278528E0,5.666479111E0
1.483971917E0,-1.108222529E-1,3.006048679E0,6.627133369E0
1.493955917E0,-3.212625682E-1,3.628482103E0,7.503276348E0
1.503938917E0,-5.847163200E-1,3.734454155E0,8.185117722E0
1.513922917E0,-8.794355989E-1,2.968830109E0,8.545201302E0
1.523905917E0,-1.027728438E0,1.260016441E0,8.375320435E0
1.533889917E0,-8.256506920E-1,-1.004634619E0,7.568464279E0
1.543873917E0,-2.893158197E-1,-3.161761284E0,6.199022770E0
1.553856917E0,3.637756705E-1,-4.686317921E0,4.966907024E0
1.563840917E0,6.958143115E-1,-5.089426041E0,4.398575306E0
1.573823917E0,5.237231851E-1,-4.135643959E0,4.483438492E0
1.583807917E0,1.541976631E-1,-2.377918243E0,4.633250713E0
1.593790917E0,2.603539228E-1,-1.024663806E0,4.172347546E0
1.603774917E0,6.084391475E-1,-1.292161494E-1,3.193180323E0
1.613758917E0,8.419626951E-1,2.889573872E-1,1.856528401E0
1.623741917E0,9.221779704E-1,4.236742258E-1,3.225792348E-1
1.633725917E0,9.004542828E-1,5.429169536E-1,-1.084849715E0
1.643708917E0,7.832323313E-1,7.534808517E-1,-2.117980242E0
1.653692917E0,6.315389276E-1,1.072150946E0,-2.739924192E0
1.663676917E0,5.266473889E-1,1.425265551E0,-3.013720512E0
1.673659917E0,4.946377575E-1,1.741477847E0,-3.039323568E0
1.683643917E0,5.895091295E-1,1.939374447E0,-2.914576054E0
1.693626917E0,8.370931149E-1,1.960425735E0,-2.761684656E0
1.703610917E0,1.132540226E0,1.819596887E0,-2.722949028E0
1.713593917E0,1.267873526E0,1.567151904E0,-2.902764559E0
1.723577917E0,1.193893433E0,1.225733638E0,-3.296255589E0
1.733561917E0,9.579098821E-1,7.933728099E-1,-3.879887104E0
1.743544917E0,6.532935500E-1,4.579337239E-1,-4.574936867E0
1.753528917E0,4.357766807E-1,2.330798209E-1,-5.129084110E0
1.763511917E0,2.113579214E-1,7.697224617E-2,-5.620260239E0
1.773496375E0,1.778050214E-1,2.353027761E-1,-6.068087578E0
1.783480375E0,2.458314747E-1,3.275549114E-1,-6.145073891E0
1.793463375E0,2.991045415E-1,3.047524095E-1,-5.839401722E0
1.803447375E0,2.284000367E-1,3.211853504E-1,-5.407783031E0
1.813430375E0,5.511001870E-2,4.826565385E-1,-5.096838474E0
1.823414375E0,-1.207886115E-1,7.125488520E-1,-4.931574345E0
1.833397375E0,-2.598290443E-1,8.877036572E-1,-4.780335426E0
1.843381375E0,-3.551526666E-1,9.467952847E-1,-4.551529408E0
1.853365375E0,-3.948231041E-1,8.970458508E-1,-4.250020027E0
1.863348375E0,-3.709004521E-1,7.865882516E-1,-3.904842377E0
1.873332375E0,-2.772333324E-1,6.178077459E-1,-3.541404247E0
1.883315375E0,-1.552182734E-1,3.286341429E-1,-3.183097601E0
1.893299375E0,-3.324390203E-2,-6.254614145E-2,-2.858778954E0
1.903282375E0,8.869910985E-2,-5.268998742E-1,-2.578510046E0
1.913266375E0,2.291038930E-1,-1.099873900E0,-2.345171213E0
1.923250375E0,3.353144526E-1,-1.759204984E0,-2.160988569E0
1.933233375E0,4.469480515E-1,-2.407474041E0,-1.923825026E0
1.943217375E0,6.131505966E-1,-2.979260683E0,-1.599475622E0
1.953200375E0,8.352150917E-1,-3.465130329E0,-1.199262142E0
1.963184375E0,1.077664971E0,-3.734582663E0,-6.586076021E-1
1.973167375E0,1.203346252E0,-3.570950270E0,1.507076174E-1
1.983151375E0,1.156021595E0,-2.999081135E0,1.250390887E0
1.993135375E0,9.522247910E-1,-1.908880472E0,2.449830532E0
2.003118375E0,6.125687361E-1,-4.935846627E-1,3.635022879E0
2.013102375E0,2.997623384E-1,9.002520442E-1,4.711071968E0
2.023085375E0,1.297180951E-1,2.112235785E0,5.623365402E0
2.033069375E0,2.525772899E-2,3.106808186E0,6.359983921E0
2.043052375E0,-1.105530038E-1,3.937181950E0,6.952710629E0
2.053036375E0,-3.311612904E-1,4.562697411E0,7.451636314E0
2.063020375E0,-6.564254761E-1,4.755672455E0,7.852108002E0
2.073003375E0,-1.056900382E0,4.425764561E0,8.131411552E0
2.082987375E0,-1.485644341E0,3.459026098E0,8.259056091E0
2.092970375E0,-1.784115672E0,1.695970535E0,8.133356094E0
2.102954375E0,-1.855098963E0,-6.290470958E-1,7.783817291E0
2.112938375E0,-1.648458123E0,-2.765206337E0,7.316126347E0
2.122921375E0,-1.385395527E0,-4.063254356E0,6.889026642E0
2.132905375E0,-1.298291206E0,-4.191062927E0,6.506249428E0
2.142888375E0,-1.557377696E0,-3.026876688E0,6.077590942E0
2.152872375E0,-2.365250587E0,-1.019098401E0,5.236934185E0
2.162855375E0,-2.702850819E0,9.183707833E-1,3.856018543E0
2.172839375E0,-2.096650600E0,2.191569805E0,2.478063822E0
2.182823375E0,-9.658696055E-1,2.620284081E0,1.491869807E0
2.192806375E0,2.434854358E-1,2.354481936E0,8.281731009E-1
2.202790375E0,1.257998943E0,1.696598411E0,4.427221119E-1
2.212773375E0,1.890988588E0,9.043077826E-1,3.147119284E-1
2.222757375E0,2.108835220E0,1.690335572E-1,1.712657809E-1
2.232740375E0,2.068228483E0,-2.963266671E-1,-2.054063976E-1
2.242724375E0,1.919887900E0,-5.311012268E-1,-8.137642741E-1
2.252708375E0,1.806014895E0,-6.334608793E-1,-1.605178833E0
2.262691375E0,1.805675149E0,-6.851719022E-1,-2.450990438E0
2.272675375E0,1.984658599E0,-6.675042510E-1,-3.135003090E0
2.282658375E0,2.314533949E0,-5.786662698E-1,-3.574915409E0
2.292642375E0,2.671963453E0,-4.706071913E-1,-3.853322506E0
2.302625375E0,2.953427315E0,-2.751190662E-1,-4.032700062E0
2.312609375E0,3.131711721E0,7.087744307E-4,-4.180895329E0
2.322593375E0,3.226427317E0,2.736220360E-1,-4.338962555E0
2.332576375E0,3.227237463E0,5.508583784E-1,-4.471504211E0
2.342560375E0,3.177156210E0,7.777750492E-1,-4.544531345E0
2.352543375E0,3.127726555E0,9.532179236E-1,-4.587214947E0
2.362527375E0,3.081643105E0,1.079535484E0,-4.591122627E0
2.372511375E0,3.015951872E0,1.123570561E0,-4.535166264E0
2.382494375E0,2.929886103E0,1.072473407E0,-4.429697990E0
2.392478375E0,2.804939985E0,9.534242749E-1,-4.282515049E0
2.402461375E0,2.645110130E0,7.833224535E-1,-4.100217819E0
2.412445375E0,2.442486763E0,5.859683752E-1,-3.866880178E0
2.422428375E0,2.221176863E0,4.035232961E-1,-3.586357355E0
2.432412375E0,1.974139333E0,2.475986779E-1,-3.259005070E0
2.442396375E0,1.716946959E0,1.245342270E-1,-2.900478363E0
2.452379375E0,1.456684947E0,3.922305256E-2,-2.535614491E0
2.462363375E0,1.203593135E0,-3.047382459E-2,-2.180655718E0
2.472346375E0,9.547867179E-1,-1.119750738E-1,-1.862791181E0
2.482330375E0,6.303468943E-1,-3.142311275E-1,-1.652374387E0
2.492313375E0,3.620573878E-1,-5.456641316E-1,-1.399850845E0
2.502297375E0,2.049503028E-1,-6.914330721E-1,-1.052984118E0
2.512281375E0,1.306744814E-1,-7.074298859E-1,-6.542692184E-1
2.522264375E0,1.185044125E-1,-6.039237380E-1,-2.376521677E-1
2.532248375E0,1.257788241E-1,-3.959327340E-1,2.528091669E-1
2.542231375E0,1.502885073E-1,-1.711332053E-1,8.365039229E-1
2.552215375E0,1.764796376E-1,-8.883048780E-3,1.487625241E0
2.562198375E0,2.131501585E-1,1.322665364E-1,2.107446194E0
2.572182375E0,2.709319592E-1,3.433574438E-1,2.736230373E0
2.582166375E0,3.933239877E-1,5.353209376E-1,3.394775867E0
2.592149375E0,6.444608569E-1,7.409542799E-1,4.126667500E0
2.602133375E0,1.049527407E0,1.081156135E0,4.982140541E0
2.612116375E0,1.576756597E0,1.597900629E0,5.879302502E0
2.622100375E0,2.139662504E0,2.228813648E0,6.730172634E0
2.632084375E0,2.583224773E0,2.714726210E0,7.589819431E0
2.642067375E0,2.736432552E0,2.939685106E0,8.294681549E0
2.652051375E0,2.608901024E0,2.778170347E0,8.537928581E0
2.662034375E0,2.272848845E0,2.109638691E0,8.268064499E0
2.672018375E0,1.750812173E0,6.698715091E-1,7.483864307E0
2.682001375E0,1.236398339E0,-9.984533787E-1,6.252845287E0
2.691985375E0,6.555550694E-1,-2.435405493E0,4.693863869E0
2.701969375E0,4.479878023E-2,-3.270486355E0,3.081176758E0
2.711952375E0,-3.200484216E-1,-3.371359587E0,1.709257960E0
2.721936375E0,-2.860287130E-1,-2.919245958E0,6.637235880E-1
2.731919375E0,3.357032686E-2,-2.078695774E0,-6.780065596E-2
2.741903375E0,4.721682668E-1,-1.102914333E0,-5.515297651E-1
2.751886375E0,8.832690120E-1,-2.029722780E-1,-8.870207071E-1
2.761870375E0,1.154319525E0,5.379728675E-1,-1.161931634E0
2.771854375E0,1.267567039E0,1.034307480E0,-1.468151689E0
2.781837167E0,1.225495696E0,1.201967239E0,-1.871668816E0
2.791821167E0,1.074468970E0,1.019178987E0,-2.407211542E0
2.801804167E0,9.207709432E-1,5.397294760E-1,-3.073901653E0
2.811788167E0,8.272204995E-1,-6.956476718E-2,-3.743856907E0
2.821771167E0,8.076103330E-1,-6.191951036E-1,-4.321940422E0
2.831755167E0,8.286184072E-1,-1.028418064E0,-4.766966820E0
2.841739167E0,8.563805223E-1,-1.255419493E0,-5.055349827E0
2.851722167E0,9.020103216E-1,-1.308860421E0,-5.235928535E0
2.861706167E0,9.638947845E-1,-1.184368134E0,-5.313773155E0
2.871689167E0,1.013108134E0,-9.759123325E-1,-5.275327206E0
2.881673167E0,1.019657969E0,-6.654914021E-1,-5.134559631E0
2.891656167E0,9.125338793E-1,-3.429718912E-1,-4.933018208E0
2.901640167E0,6.723702550E-1,-6.480099261E-2,-4.691090107E0
2.911624167E0,3.318246901E-1,2.658799887E-1,-4.379637241E0
2.921607167E0,-5.141245574E-2,5.851145983E-1,-3.953028440E0
2.931591167E0,-3.955599964E-1,7.685317993E-1,-3.465458393E0
2.941574167E0,-6.603242755E-1,8.477919102E-1,-2.969459534E0
2.951558167E0,-8.411329389E-1,8.649607897E-1,-2.466301918E0
2.961541167E0,-1.028988481E0,7.287611961E-1,-2.022821903E0
2.971525167E0,-1.227154851E0,4.690590799E-1,-1.648531795E0
2.981509167E0,-1.342779279E0,1.285623461E-1,-1.225115657E0
2.991492167E0,-1.413124800E0,-2.218358815E-1,-7.177005410E-1
3.001476167E0,-1.414559007E0,-4.748917818E-1,-2.058022469E-1
3.011459167E0,-1.361542583E0,-6.465516686E-1,2.703773379E-1
3.021443167E0,-1.274701715E0,-7.646870613E-1,7.823675871E-1
3.031426167E0,-1.178372264E0,-8.081546426E-1,1.363297105E0
3.041410167E0,-1.100952268E0,-6.742557883E-1,2.002973557E0
3.051394167E0,-1.036578417E0,-3.053462207E-1,2.718326569E0
3.061377167E0,-9.438335299E-1,1.904686242E-1,3.512156725E0
3.071361167E0,-8.581063747E-1,8.481908441E-1,4.359784126E0
3.081344167E0,-7.743859291E-1,1.650823236E0,5.261352062E0
3.091328167E0,-6.834064722E-1,2.440103769E0,6.113513470E0
3.101312167E0,-5.813884139E-1,2.946928263E0,6.778565407E0
3.111295167E0,-4.836949408E-1,2.861947536E0,7.110232353E0
3.121279167E0,-3.501440883E-1,2.368022203E0,6.985321999E0
3.131262167E0,-2.528092861E-1,1.423526525E0,6.324854374E0
3.141246167E0,-2.526201606E-1,1.261518747E-1,5.233919144E0
3.151229167E0,-3.622667789E-1,-1.375305772E0,4.000480652E0
3.161213167E0,-4.950913787E-1,-2.679877520E0,2.919838190E0
3.171197167E0,-5.663426518E-1,-3.375853777E0,2.094118357E0
3.181180167E0,-5.322113633E-1,-3.377400160E0,1.603038073E0
3.191164167E0,-3.503315449E-1,-2.753431320E0,1.369002223E0
3.201147167E0,-6.214899197E-2,-1.590948462E0,1.159113765E0
3.211131167E0,3.139141202E-1,-2.828362584E-1,8.535615206E-1
3.221114167E0,7.035233974E-1,8.805577159E-1,4.866522849E-1
3.231098167E0,9.957941175E-1,1.683023453E0,8.690939844E-2
3.241082167E0,1.166054249E0,1.991811037E0,-3.685185611E-1
3.251065167E0,1.233523488E0,1.732003927E0,-9.155060053E-1
3.261049167E0,1.169825673E0,1.077773213E0,-1.594172716E0
3.271032167E0,1.046191096E0,2.954864800E-1,-2.324083090E0
3.281016167E0,9.569111466E-1,-4.100419283E-1,-2.988032579E0
3.290999167E0,8.779832721E-1,-9.737029076E-1,-3.543142557E0
3.300983167E0,8.064358830E-1,-1.349040508E0,-3.987289190E0
3.310967167E0,7.573000193E-1,-1.614454031E0,-4.347588062E0
3.320950167E0,7.337870002E-1,-1.763680220E0,-4.624566078E0
3.330934167E0,7.447574139E-1,-1.757591128E0,-4.852411270E0
3.340917167E0,7.823083997E-1,-1.676113963E0,-5.023030758E0
3.350901167E0,7.857409716E-1,-1.620484829E0,-5.046531200E0
3.360884167E0,7.417682409E-1,-1.589521766E0,-4.963526726E0
3.370868167E0,6.365203857E-1,-1.531233907E0,-4.833830833E0
